995 223 5	2	-1	-3	-2	-3	-6	987 49151 1	3	6	2	1	-1	1	6	10	6	-1	-4	-10	-8	-12	968 65535 6	4	1	1	1	3	5	3	1	-2	-2	-2	-2	-1	-3	-5	963 64511 4	6	6	5	4	3	1	5	3	1	-2	-3	-6	-11	-16	1033 65535 -86	-90	-100	-106	-106	-94	-75	-53	-23	15	66	115	147	159	144	95	963 65535 95	28	-12	-26	-24	-13	-5	-4	-6	-8	-5	-4	-2	-1	-3	-6	957 60407 -1	2	-2	1	1	2	1	1	-2	-4	2	6	3	956 55159 4	2	1	-1	-3	-3	2	2	2	-2	3	3	956 62975 2	2	1	1	2	-2	-3	-2	-1	2	4	1	2	-1	956 64767 2	1	1	-1	-1	-3	1	2	-2	-2	-1	1	1	1	952 65070 2	1	1	3	3	5	2	-1	-2	-5	-2	953 32735 -1	-4	-4	-2	-2	-1	-1	-2	-3	5	6	6	4	3	969 65279 -8	-5	-5	-3	-4	-3	-2	4	5	5	2	4	6	9	6	972 65511 3	1	1	4	2	1	3	1	2	2	-1	-1	-2	-1	968 56959 4	1	-2	1	2	4	-1	1	1	3	2	-1	-2	965 65271 3	4	2	3	-1	-1	-2	-1	-3	-3	-2	2	2	1	962 48495 3	4	3	2	1	-3	2	4	-3	-4	-1	2	962 48575 1	-2	-4	-3	-1	1	1	2	1	4	2	2	1	967 65535 -4	-1	1	-2	-4	-6	-4	-2	-1	1	3	2	2	3	7	7	979 49039 -6	1	4	5	4	2	-1	1	-1	-2	-3	-2	965 65535 15	17	18	10	2	2	-1	-3	-7	-7	-6	-4	-5	-4	-6	-9	956 40951 -1	-2	-1	-3	2	1	2	4	-1	-3	2	3	2	967 65535 -13	-16	-15	-19	-28	-32	-38	-45	-50	-44	-26	-3	25	54	104	155	1042 65535 126	157	170	163	133	80	15	-40	-72	-96	-108	-113	-109	-103	-96	-96	946 49150 1	2	2	2	-1	1	1	1	3	-1	-4	-4	-2	-1	944 65533 -1	1	3	5	2	2	-1	-2	-2	2	2	1	-1	-3	-2	943 32638 -1	-2	-1	1	1	2	3	-1	3	3	4	4	-1	944 65019 1	2	5	2	1	-2	2	2	3	-1	-3	-3	1	-1	938 65327 3	2	2	4	3	1	2	-1	2	-4	-5	-4	-1	933 56063 2	1	-3	-1	1	-3	-4	-1	1	2	3	4	3	955 65535 -13	-10	-5	-4	-3	-4	1	4	6	5	3	3	5	7	9	9	961 57343 -1	-1	2	2	4	-1	-3	2	1	3	3	-1	-2	1	2	961 20433 2	1	4	5	2	1	-1	3	-3	957 62715 4	3	4	2	-1	1	2	-2	-3	-2	1	1	955 8191 5	3	2	1	-2	2	3	3	2	-2	-3	-2	-1	955 34681 1	3	3	2	-1	-1	1	3	-2	957 65215 -3	-1	1	-1	-1	-1	1	1	-2	-2	-1	1	4	8	972 65535 -8	-7	-5	-3	-1	-1	-1	1	2	4	7	9	4	3	4	3	971 64479 6	4	3	-2	-2	3	8	9	7	-1	-3	-4	-8	-11	952 65023 4	6	5	5	1	-2	3	2	1	-1	-3	-4	-2	-1	-1	936 65535 12	11	12	13	17	14	10	7	6	1	-5	-10	-16	-23	-26	-17	1043 65535 -100	-69	-37	5	63	119	158	173	151	85	-9	-83	-119	-120	-108	-102	944 65529 1	2	1	2	1	-1	1	-1	2	1	1	-2	-1	-3	940 47485 3	1	3	3	-3	2	2	3	-1	-2	1	942 16383 -3	-2	2	3	2	2	3	-1	1	4	2	2	-1	-3	941 40703 -2	1	-2	-2	-1	3	3	1	-2	1	2	4	3	942 65503 2	1	5	2	4	4	2	-1	1	1	-1	-2	-2	-3	-1	941 32751 1	-4	-3	-4	-1	-1	-1	-1	-2	-2	4	4	5	8	960 65279 -8	-4	-3	-2	-3	-3	-1	3	3	1	2	3	4	4	4	961 60927 1	1	1	3	2	-1	-2	1	2	2	-1	-2	2	1	957 65515 8	5	2	1	3	3	3	2	-3	-3	-1	1	-1	-5	953 54717 1	1	-1	-2	1	3	1	-2	-2	1	1	951 62909 -1	-3	-1	1	1	-3	-1	3	3	3	-1	4	952 63465 3	4	1	-1	1	1	1	-3	-5	1	1	-2	960 65535 -8	-5	-7	-5	-5	-5	-4	2	3	3	2	3	6	7	9	8	970 65503 -2	-1	1	3	5	2	1	-1	-2	1	-1	-2	-1	-2	-1	957 65535 14	16	19	15	11	5	5	-2	-5	-9	-10	-9	-7	-8	-10	-11	945 30687 2	2	2	-2	-1	4	4	1	-4	-2	-1	1	-2	935 65535 4	-3	-6	-12	-13	-16	-19	-31	-40	-37	-26	-10	12	35	66	107	1026 65535 72	125	160	170	152	93	11	-63	-102	-106	-97	-84	-80	-80	-82	-84	943 30205 4	3	2	-1	1	3	2	-1	-2	-1	2	-1	944 65085 -1	-1	-2	2	3	2	1	1	1	-1	-1	1	946 63486 1	3	1	-1	1	3	1	-1	-1	1	3	3	1	-1	948 64350 -2	3	1	-1	-3	-1	1	-2	1	1	1	1	948 65519 -2	-2	3	2	1	-1	-2	-2	1	3	-1	-2	1	1	3	953 65535 -3	-6	-8	-6	-6	-3	-2	-3	-4	1	4	7	8	7	6	8	966 65461 -1	1	-2	-1	1	1	2	4	2	-1	-1	2	-1	965 47933 -3	2	3	4	-2	-1	2	-1	-2	-1	-1	960 65487 3	1	2	1	5	4	2	-2	-4	-2	1	-1	-3	-2	957 64889 4	3	3	1	-2	-1	1	-2	-3	-2	-1	1	955 65439 2	1	2	5	1	1	-1	-4	-3	-1	-1	-1	1	1	954 65279 1	1	-6	-2	-2	1	1	-1	1	4	4	3	3	2	4	969 65215 -9	-3	-3	-5	-6	-2	-1	-1	1	2	5	9	6	7	972 65023 1	1	3	5	1	-1	1	-2	-1	-4	1	2	3	-1	-4	955 63223 9	6	4	2	3	2	-3	-1	1	2	-3	-4	-6	950 32446 1	1	-2	-1	-1	1	2	-2	1	2	4	3	990 65535 -43	-45	-52	-55	-63	-69	-79	-77	-61	-37	-10	23	71	129	175	198	976 65535 204	155	77	8	-36	-52	-48	-42	-34	-32	-30	-30	-32	-33	-37	-37	944 65534 -1	1	-1	-1	-3	-1	3	2	1	1	1	1	3	2	2	942 49135 -3	2	3	2	1	-3	-1	1	1	1	-1	1	-2	1	942 16383 -2	-1	1	3	3	3	2	3	3	1	1	-2	-5	-1	943 29630 2	3	-2	1	2	2	-3	-2	1	2	1	936 65531 3	3	3	4	3	-2	-1	-2	1	-1	-6	-3	-4	1	3	943 65471 -5	-8	-9	-8	-5	-3	-1	-4	-3	5	7	8	8	8	12	961 49071 -3	2	2	-1	1	1	2	1	-1	2	2	4	1	963 64491 -3	-1	-2	2	1	1	4	5	3	2	-4	1	1	958 65279 3	1	-1	1	3	2	-1	-2	1	1	2	3	-1	-1	-3	958 55407 -1	1	3	-1	-1	-2	2	3	1	-1	957 61427 -4	-2	-1	3	2	-3	1	4	4	1	1	1	1	958 32735 -2	-2	-2	1	1	1	-3	-4	-2	2	4	5	5	11	975 65534 -5	-2	-3	-4	-3	-1	2	2	5	2	2	5	3	4	2	975 65535 -2	1	3	3	-1	-2	-1	3	8	10	7	3	-5	-5	-8	-8	955 63415 7	3	1	1	-1	-1	1	-2	1	1	-2	-5	-2	948 63455 2	7	8	4	4	7	6	6	5	-2	-3	-9	-15	-19	1035 65535 -113	-120	-119	-110	-92	-70	-43	-3	52	108	149	166	148	93	15	-54	941 65535 -2	-17	-15	-7	3	5	4	4	3	5	7	6	6	3	1	1	943 53247 3	3	-2	-1	2	2	1	-2	-2	-2	1	3	3	-1	943 48125 -2	2	2	2	-1	-1	1	3	2	-1	-4	-2	-1	942 63287 1	-1	-3	-3	3	4	2	2	4	-2	-2	-1	942 64478 -1	1	-2	-1	-3	2	1	2	2	2	3	3	1	937 65404 2	2	5	5	3	1	-2	-1	1	1	-3	-2	-2	947 65407 -12	-11	-13	-9	-9	-6	-3	-3	4	10	11	12	11	11	15	966 53166 -1	1	-4	-1	1	2	-2	-1	2	3	3	967 48894 -1	3	3	3	2	-1	2	2	-1	-2	-4	-2	-2	961 65491 5	3	2	1	4	3	2	1	-2	-2	1	-2	-1	959 65529 3	1	2	-1	-1	1	3	3	3	-1	-2	-1	1	-1	959 51935 -2	-1	1	-1	2	4	2	-2	-1	3	1	958 9849 -1	2	2	1	3	3	3	2	970 65535 -9	-7	-7	-5	-9	-6	-1	3	3	2	1	3	7	8	9	10	979 64511 1	2	5	4	4	-2	-3	-1	2	-3	-3	-5	-2	3	5	962 65535 18	11	7	5	2	1	-2	-4	-3	-2	-4	-4	-5	-6	-7	-6	956 65377 1	4	3	1	-1	-1	-1	1	-1	-3	-1	969 65535 -16	-18	-19	-26	-34	-41	-44	-49	-52	-46	-28	-1	28	68	115	171	1024 65535 162	189	184	155	89	4	-59	-89	-94	-85	-76	-72	-72	-74	-76	-76	947 62373 2	3	4	3	2	3	3	-2	-1	-2	945 54127 -3	-1	3	-1	-1	1	1	-2	1	2	4	948 49147 1	-2	-1	2	2	2	1	-1	2	-2	1	2	-2	-2	947 28095 2	2	-2	-1	2	1	-1	1	1	3	3	4	947 65519 -1	4	4	5	2	1	-3	-1	2	2	3	-1	-1	-1	-1	948 61437 1	-1	-3	2	1	1	-2	-5	1	2	4	1	-1	2	962 65023 -10	-7	-7	-4	-4	-1	3	5	5	3	6	8	6	6	6	966 15599 2	3	2	1	2	2	1	-2	-1	1	2	967 12252 -2	1	2	1	-1	-5	-4	3	3	2	973 65534 -3	-2	-2	-2	-5	-2	2	4	4	1	1	2	8	7	2	971 65535 7	12	11	9	7	5	5	4	3	-1	-4	-10	-11	-11	-9	-13	951 61415 5	4	1	1	3	2	-2	-4	-2	-1	-1	-3	1	949 65495 5	4	4	5	2	5	5	7	4	5	2	-5	-11	-20	1033 65535 -113	-113	-119	-123	-117	-98	-70	-37	-4	43	93	138	160	166	138	71	949 64495 70	8	-21	-19	-8	2	-2	-5	-1	-3	-2	-4	-6	-3	945 61375 3	2	2	-1	-2	-1	1	1	-1	1	2	1	2	-3	944 64757 -4	-1	-2	2	2	2	2	5	4	1	2	2	945 32697 -3	-4	-2	2	2	3	-1	-1	1	3	4	2	946 61375 2	3	1	-2	-2	1	2	-1	-2	-1	1	2	1	-1	944 48990 -1	2	4	4	3	-1	1	2	-1	-5	-4	-1	946 63423 -3	-3	-5	-2	2	1	-1	-3	4	4	4	1	4	7	959 65023 -4	-3	-2	-3	-6	-2	3	4	4	1	2	3	4	4	-1	961 59373 -2	-6	-2	2	1	1	3	2	2	-1	-2	2	957 65471 4	2	2	1	4	4	5	1	-1	1	-2	-4	-6	-7	-2	953 65406 3	3	2	-1	-2	-1	-1	2	-2	1	-1	1	3	2	953 64953 -3	1	1	1	2	1	-1	2	1	-1	-3	1	951 65535 2	1	-5	-4	1	1	-1	-1	-5	-2	-1	3	5	4	1	1	951 62327 3	3	6	1	1	1	-2	-4	-4	-1	-2	-1	952 63230 -3	-1	1	1	-1	-2	2	4	3	4	2	3	2	951 65531 3	1	-1	1	1	2	1	-2	-2	-1	3	2	1	-2	-1	953 57277 -2	-1	-1	-1	1	3	2	2	-1	-1	-2	2	1	960 65535 -8	-7	-8	-5	-3	-2	-2	2	3	4	3	5	3	7	9	11	969 65527 4	4	3	2	4	4	3	-1	-3	-1	1	4	-3	-9	-5	959 65535 6	11	12	11	8	5	3	2	1	-5	-9	-8	-8	-8	-9	-9	945 65532 5	3	7	4	4	-1	-5	-2	-1	2	3	-1	-4	-2	948 65535 -3	-6	-10	-12	-15	-22	-21	-28	-38	-39	-29	-8	15	38	72	120	1033 65535 88	134	160	168	149	103	36	-23	-66	-94	-109	-119	-116	-109	-102	-99	938 65436 -4	-1	2	4	4	3	2	1	2	-2	-4	-4	936 61439 2	-1	-1	3	2	2	3	-1	-1	2	1	1	-1	-1	1	938 19814 1	-2	2	1	-2	-2	3	1	938 59263 -5	-3	-3	-2	-2	-1	3	3	1	1	2	5	5	939 57343 2	2	-1	4	4	4	4	-1	2	3	2	-1	-4	-8	-7	927 63477 7	6	5	4	-2	2	-1	-3	-2	-6	-3	-1	-3	936 65279 -12	-10	-8	-4	-4	-6	-5	2	3	6	6	8	10	12	17	959 64511 -5	-6	-5	-3	-1	4	1	2	4	5	4	4	3	-1	3	959 58279 2	2	1	3	3	2	-1	2	1	-1	958 49151 -1	3	2	2	-1	-1	1	1	2	2	1	-4	-3	-3	-1	955 30459 -2	-2	-2	2	2	-2	1	2	3	2	-1	-1	954 65405 2	3	4	-2	-1	1	3	1	-2	-6	-4	1	1	-1	953 65379 -2	-1	2	2	1	-1	-1	1	3	2	3	3	962 65535 -7	-11	-12	-8	-4	-2	-1	3	1	3	2	5	7	10	7	9	971 63487 1	3	4	2	1	1	3	1	-3	-3	-2	-4	-3	2	4	957 65023 18	15	10	9	7	3	-4	-3	-4	-4	-8	-10	-9	-5	-3	949 65535 3	2	1	1	2	3	2	1	-2	-2	2	3	-1	-2	-4	-4	954 65535 -7	-6	-9	-15	-23	-30	-33	-36	-42	-47	-36	-12	19	49	91	141	1019 65535 125	167	183	171	121	42	-36	-85	-100	-94	-88	-82	-78	-78	-78	-75	941 61695 4	2	-2	-4	-3	-1	1	2	-1	1	-1	3	944 49723 1	3	1	-2	1	-2	1	-1	942 32695 -1	1	2	3	1	-1	1	-1	1	1	1	2	3	943 16351 1	2	3	2	3	2	-3	-2	1	1	-2	-3	-1	941 59902 4	3	2	-4	3	2	-1	-3	-2	1	1	2	942 59367 -3	-3	-2	-2	-4	-3	-2	1	-1	5	8	10	961 64767 -7	-7	-7	-4	-1	2	-1	2	2	4	5	4	4	6	966 65533 1	4	2	2	-1	2	1	3	1	-1	-3	-1	1	1	-2	963 64431 -1	2	1	3	4	-1	1	2	1	-3	-3	-1	1	958 61375 4	2	-2	4	3	1	1	-3	2	2	-1	-1	-5	-2	956 59260 4	5	2	-2	2	2	-2	-3	-1	1	1	958 65535 -3	-1	-1	1	1	-1	-2	-2	2	3	2	-1	-1	2	1	3	960 13535 -5	-3	2	-4	-2	2	2	2	5	8	976 64511 -3	-2	-2	-3	-4	4	2	2	5	4	3	2	2	1	-1	973 32767 3	4	2	4	5	7	12	7	2	-1	-3	-7	-9	-10	-10	955 65495 5	3	-1	-1	2	2	2	1	-1	-1	2	-2	-5	-1	942 65535 13	15	15	15	11	11	13	11	3	-8	-14	-19	-23	-27	-18	3	1044 65535 -71	-34	9	65	117	155	165	139	74	-16	-85	-114	-117	-102	-93	-91	947 57007 4	1	1	3	3	2	-2	1	2	-1	-4	-4	946 28127 1	1	-4	-2	1	1	-1	-1	2	3	2	1	947 48873 -3	1	2	1	-2	-2	2	3	4	-2	3	949 20347 1	1	4	2	-1	1	-1	2	1	-3	-1	948 47043 1	2	1	-1	-1	2	1	1	1	-2	949 59375 -4	-2	-2	-2	-2	-3	1	2	2	-2	5	6	10	964 65151 -5	-6	-5	-5	-3	-3	-3	3	6	7	8	5	3	7	969 65526 4	5	1	-1	-2	-2	-1	1	1	1	-2	-1	1	2	967 40943 -1	2	3	1	-2	1	3	3	2	-3	-2	-1	-2	962 65279 2	4	1	3	4	3	4	-2	-1	-1	2	1	-1	-4	-2	961 45031 2	2	-2	1	4	3	2	1	-2	2	2	-2	962 57083 -2	-2	1	-2	-2	-2	1	4	5	4	1	2	2	967 65535 -5	-6	-6	-5	-2	-3	-2	-6	-5	-1	4	9	6	9	7	12	983 65471 -4	-2	-1	1	2	2	5	6	5	-2	-1	-1	-1	-1	-2	973 64767 6	9	15	17	14	3	-3	-4	-6	-9	-9	-12	-10	-9	961 57215 4	3	1	1	3	3	2	-2	-1	-1	-1	-2	-5	-4	955 61439 4	6	5	-5	-10	-16	-20	-24	-33	-37	-28	-5	22	51	90	1031 65535 68	124	157	166	140	83	5	-61	-93	-99	-90	-84	-80	-78	-78	-76	954 16379 -2	1	2	2	3	3	-1	1	2	3	2	-3	-2	954 47806 -3	1	-3	-2	-1	-1	-2	3	3	4	2	953 62205 1	2	4	2	-3	1	2	-2	-2	-3	-2	2	954 65143 1	1	2	3	5	3	1	-1	-1	-2	-2	-3	1	953 63477 2	5	1	2	1	3	4	1	-2	-5	-6	-1	-3	955 63359 -8	-5	-5	-1	-4	-4	-3	3	3	3	2	6	7	12	970 65279 -4	-4	-6	-2	-1	2	2	1	3	4	5	5	3	1	2	970 65273 3	6	4	3	-1	-1	1	-1	-2	-4	-2	-1	-2	966 30207 2	1	3	2	2	1	3	2	-1	-3	-2	-2	-3	962 51623 -1	-2	2	-2	-3	-2	-1	-3	-1	961 49115 2	1	-1	-2	-2	-1	2	2	3	3	1	2	1	962 49087 -2	2	3	2	-1	-3	-3	1	4	-1	-3	-2	4	6	977 65407 -5	-5	-6	-5	-3	1	3	3	3	6	6	5	5	1	-1	972 64511 6	7	5	2	-1	3	9	9	3	-4	-3	-3	-7	-10	-13	957 65503 -1	-1	2	4	5	4	1	1	2	2	-2	-3	-3	-3	-2	944 65535 10	7	8	10	9	11	11	10	7	4	-1	-5	-8	-14	-24	-28	1036 65535 -110	-90	-64	-35	5	60	111	144	155	132	70	-6	-63	-95	-106	-105	947 65415 -10	-2	2	3	2	2	-1	-3	1	3	3	5	947 57039 1	1	3	3	4	2	-1	-1	-2	-1	-3	-4	945 49055 1	1	-2	-2	-1	4	3	1	1	1	2	-2	-1	945 45019 -2	1	1	-1	-2	-2	1	1	-1	-1	3	5	944 65439 4	3	1	2	4	4	3	2	2	-1	-3	-4	-6	-6	936 64991 3	4	2	-1	-5	-3	3	1	-2	-1	3	3	3	2	952 65279 -14	-11	-11	-5	-3	-5	-2	2	5	5	7	8	7	11	13	966 42813 -2	-1	1	1	1	1	4	4	2	1	965 65527 4	4	4	1	-2	-2	-1	3	1	-2	-4	-3	1	-1	-2	963 29673 -1	1	2	-2	-1	-1	2	1	-1	2	959 57086 5	2	1	1	2	3	-2	-1	1	1	3	-1	-1	960 61435 2	3	3	-2	-1	4	2	3	1	-2	-2	-2	-1	-1	961 55019 -4	-2	1	-1	-2	1	2	1	-1	1	4	970 65535 -5	-7	-8	-6	-2	-1	1	-1	-1	2	6	6	7	6	7	9	980 63805 1	3	3	2	1	1	-2	-2	-4	2	-2	969 65279 4	8	13	17	14	10	3	-1	-2	-6	-9	-8	-12	-10	-12	958 65459 2	1	2	1	1	4	5	2	2	2	2	-6	-5	944 65535 14	15	15	13	10	12	11	9	3	-5	-10	-14	-17	-22	-23	-11	1054 65535 -95	-63	-28	20	73	118	147	157	137	75	-6	-76	-115	-121	-114	-106	950 64998 2	1	-1	-2	3	3	-1	-3	-2	1	1	-2	951 48111 -2	-1	-3	-2	1	1	2	2	-1	2	3	3	3	952 7933 2	1	-1	-2	2	1	2	1	-2	-3	2	952 65247 3	2	-2	-2	1	2	3	-2	-1	2	1	-1	-1	-2	952 59387 -1	2	2	1	3	2	3	1	-2	-1	1	-1	-1	948 32699 -1	1	2	1	-1	-3	1	-1	2	-1	-1	2	4	965 63487 -11	-8	-7	-4	1	1	2	1	3	3	7	8	5	4	7	974 24481 1	-2	-3	1	3	1	2	-3	-1	971 32413 1	5	3	4	3	-1	-1	-2	-4	-2	-1	967 51935 3	1	1	1	-3	-1	3	1	-2	-1	-1	963 61439 2	3	4	-2	-1	-1	3	2	-1	-3	-2	-1	1	1	-2	962 65263 -2	-1	-2	4	2	2	-1	2	2	4	-3	-1	1	1	962 63485 1	-1	-3	-2	2	3	-1	-2	1	2	4	3	3	3	969 65407 -4	-2	-4	-4	-7	-5	-2	-1	-1	2	6	9	7	7	7	981 61423 -6	-1	-1	3	3	1	2	4	2	1	-2	-2	3	3	973 65535 9	6	7	12	15	16	10	2	-2	-4	-5	-6	-9	-11	-14	-13	957 64507 2	5	2	1	-1	1	2	3	-1	-2	-1	1	1	-1	941 65535 15	16	16	17	16	14	8	4	-3	-5	-7	-7	-12	-13	-19	-27	1047 65535 -138	-132	-121	-98	-73	-47	-11	34	82	125	149	155	123	62	-20	-80	947 61423 -10	-13	-10	1	3	3	3	5	5	3	4	5	4	4	950 65531 -1	-3	2	1	3	-1	-2	-1	3	3	2	1	-2	3	4	950 65535 3	1	-2	1	3	3	1	-3	-4	-1	3	1	2	3	1	1	951 61245 2	4	4	1	-2	2	1	-1	1	2	1	-4	951 49131 -3	2	6	1	1	-4	-3	-2	1	1	-2	2	1	949 65534 5	3	1	1	2	1	-1	-3	-2	-1	1	1	2	2	-3	958 65535 -8	-5	-7	-6	-8	-4	-2	1	2	3	1	4	7	9	8	8	970 49135 -1	1	2	2	-1	-1	-3	2	2	1	-2	-1	3	3	969 65503 6	4	3	4	4	3	2	-1	-4	-3	-1	-1	-1	-2	-2	965 65526 3	5	2	-1	-3	-1	1	3	-1	1	-3	-1	1	2	960 65119 -1	1	2	3	4	1	-2	1	-1	-3	-2	-1	2	960 61178 1	1	-3	2	1	2	-3	-1	-1	1	2	-2	958 52718 2	4	-3	-2	2	3	-1	-1	4	4	3	970 65535 -10	-9	-6	-3	-2	1	2	1	2	3	2	4	3	6	8	13	977 57309 5	2	2	2	1	2	-1	-1	1	-3	-3	-4	3	965 65535 18	16	11	6	3	3	5	5	1	-5	-8	-9	-7	-7	-8	-11	953 64381 -1	1	1	2	1	-2	-1	1	3	-1	-3	-3	2	957 65535 -3	-7	-10	-15	-21	-25	-31	-41	-46	-43	-30	-6	16	42	85	139	1015 65535 129	159	168	149	97	28	-28	-65	-85	-89	-85	-79	-76	-73	-73	-73	943 60415 -3	1	2	-1	-3	2	2	3	2	2	-1	1	1	-1	944 30335 -1	-2	-2	2	2	1	2	3	2	-2	-2	-2	940 58347 1	2	3	1	2	1	-1	-1	-1	2	2	942 40825 -1	2	1	1	-3	-2	2	1	-1	-2	2	940 57215 2	1	2	4	6	4	1	1	1	4	1	-2	-6	-4	937 39927 -1	-1	-3	-1	1	-1	-2	-2	-1	3	4	5	955 65535 -12	-7	-6	-5	-5	-5	-3	-2	4	8	7	5	4	4	6	9	961 65535 2	-1	-3	-3	1	1	1	2	1	-1	2	3	3	2	-1	-1	960 65014 1	1	2	-2	-3	-3	1	1	-1	-2	-3	4	4	956 64508 4	2	4	4	3	-3	-1	-2	-1	-1	-4	-4	-1	953 28447 1	1	3	4	3	1	2	2	1	-1	-2	954 40255 -3	-2	-4	-2	3	1	2	2	2	2	1	955 63487 -1	-3	-1	2	-1	-1	-2	1	2	3	1	-2	-2	3	6	969 65535 -8	-8	-9	-5	-5	-1	2	-1	-2	2	8	9	9	6	4	5	968 65023 7	6	5	3	2	-2	1	4	5	4	1	-3	-4	-5	-11	951 65375 2	3	3	3	2	-1	-1	1	2	-2	-4	-3	-2	2	946 53247 4	1	4	6	4	2	1	2	3	4	2	-3	-11	-15	1031 65535 -103	-104	-112	-118	-114	-97	-72	-44	-12	30	79	125	156	163	143	90	948 65535 98	34	-2	-16	-21	-18	-14	-9	-7	-5	-7	-7	-8	-4	-3	-1	941 65527 4	3	-1	1	3	3	2	2	-4	-1	1	2	-3	-5	-4	940 48366 1	-2	1	-2	-1	1	-1	-1	2	2	2	940 48735 -2	1	5	3	1	-2	1	-1	-4	-2	-1	1	939 47965 1	-3	-1	-1	1	2	-1	2	4	4	2	935 65535 5	5	5	2	2	1	5	3	-1	-2	-4	-4	-4	-4	-4	-5	938 65535 -12	-11	-6	-5	-6	-5	-5	-2	1	3	6	5	6	9	13	13	956 63359 -4	-6	-7	-3	2	2	2	1	4	7	5	4	4	4	959 65523 2	3	3	2	-1	1	1	3	1	-1	-3	-1	1	-3	956 47997 -2	4	5	3	-1	-1	2	1	-1	-4	-3	2	954 63486 3	1	-3	-4	2	3	-2	-1	2	3	3	6	3	-1	953 65020 2	3	4	1	-3	-1	1	2	-2	-1	-1	1	2	954 63359 -3	-2	1	1	-1	-2	-1	3	3	-1	1	2	4	2	960 65535 -5	-6	-7	-6	-3	-2	-2	-2	-2	3	7	9	8	7	6	9	975 49151 -3	1	1	1	2	4	5	3	1	-2	-2	1	1	-1	-5	962 65535 8	14	16	17	9	3	1	-3	-1	-3	-4	-7	-10	-11	-9	-7	952 57343 4	5	1	3	5	1	2	-3	-3	-1	-1	2	-2	-4	-1	942 65535 8	11	8	6	5	5	2	-4	-11	-15	-22	-29	-23	-5	21	51	1043 65535 -17	33	88	133	159	162	122	53	-25	-83	-110	-114	-107	-98	-95	-95	944 57342 3	1	-1	1	-2	2	1	-1	-1	1	3	3	-1	-1	944 64511 3	4	3	-1	-2	1	3	1	-2	-1	-1	1	2	1	1	945 62967 -2	-3	-1	2	-1	2	2	4	4	3	2	1	2	946 47071 2	-2	-2	5	3	1	-2	-2	2	3	1	-1	2	948 65535 2	3	3	1	-1	1	1	3	2	1	-4	-3	-5	2	-1	-4	949 61311 -7	-5	-4	-1	-2	-6	-2	1	2	2	5	4	11	13	966 61436 -4	-3	-4	2	2	4	2	1	2	1	5	4	3	968 65533 1	1	2	1	-2	-1	-1	4	4	1	-1	1	3	2	-2	965 32749 -1	3	3	4	1	-1	-2	2	2	2	-1	-1	3	963 53151 2	3	1	4	4	-1	-2	2	1	-3	-6	-3	961 57231 -1	1	1	-3	-1	1	2	2	2	2	3	1	961 65519 1	1	1	4	3	-2	-2	-3	-1	1	2	-3	-1	1	2	971 65535 -7	-6	-11	-9	-7	-2	-1	1	3	6	7	8	7	7	5	7	981 65535 -2	2	2	3	1	4	3	5	3	1	-2	-2	-1	-1	-1	-3	971 65471 3	4	7	12	16	14	8	3	2	-2	-8	-11	-12	-12	-13	955 65271 3	4	2	1	2	5	2	-2	-1	-2	-1	1	-2	-1	954 65535 2	2	2	-1	-10	-17	-21	-24	-30	-38	-39	-23	-1	28	63	107	1025 65535 86	134	163	164	127	63	-15	-69	-90	-90	-83	-77	-76	-76	-75	-74	950 45023 2	-1	2	4	3	1	-2	-2	1	1	-2	-3	-4	949 40383 -1	-1	-3	-1	1	2	-2	2	3	5	4	4	950 32732 1	4	2	1	1	-1	-1	3	3	-1	-2	-3	952 32191 -2	-3	-1	1	3	1	-1	3	5	5	1	1	2	951 62582 5	3	3	2	1	-1	-2	-3	3	1	951 63487 -3	-2	-1	1	-2	-3	-2	1	2	2	2	3	3	5	7	964 64511 -5	-7	-7	-6	-2	1	-1	-2	3	3	7	6	3	2	5	969 63487 1	4	2	2	1	3	5	3	1	-1	-3	-3	-1	-1	-3	963 32767 1	1	2	1	3	1	-1	-1	2	2	1	-3	-2	-2	1	961 57231 1	2	2	2	2	3	2	1	-1	-4	-6	-4	958 61437 4	1	2	1	1	2	2	3	1	-3	-1	1	1	-1	958 65535 -2	-1	1	2	3	-1	-3	-1	1	1	2	1	-1	2	2	4	965 65535 -3	-5	-7	-9	-6	-2	-2	1	1	5	6	6	7	7	5	4	976 64175 -4	-1	1	2	-1	2	3	-1	4	4	2	-1	963 65535 10	13	18	16	10	4	-1	-1	-5	-6	-9	-9	-11	-10	-7	-7	953 65523 4	1	-1	-1	2	2	1	1	-1	1	1	2	-3	-4	978 65535 -32	-39	-45	-49	-54	-62	-68	-56	-37	-21	-6	16	45	87	140	182	1040 65535 149	169	178	161	122	67	5	-46	-85	-103	-109	-107	-101	-99	-95	-91	944 51967 6	1	-2	-1	-1	1	2	4	3	-1	-4	-1	944 31743 2	4	1	1	2	-2	-1	-2	-2	1	3	1	-1	-4	943 57279 -6	-2	-1	1	-1	-2	-1	1	3	3	1	3	3	3	943 65535 2	-3	-3	-2	-1	2	2	1	-2	-2	1	1	4	3	-1	2	939 65535 7	9	10	7	4	1	2	2	2	-2	-8	-6	-8	-7	-4	-6	937 65535 -6	-8	-4	-5	-3	-4	-7	-4	-1	3	4	3	5	5	13	15	959 65471 -5	-5	-4	-2	1	5	1	2	-3	5	5	5	3	-1	3	962 64140 1	2	1	-1	-4	1	1	2	1	958 57215 2	3	3	2	-2	-2	-1	2	2	1	-4	-2	-1	-1	957 63635 -2	-3	-5	-5	-2	-2	1	-3	-2	955 40494 -2	-2	-4	-3	-2	-3	1	2	1	953 64975 -3	-3	-1	3	1	-2	1	3	3	1	1	4	3	967 65407 -11	-9	-13	-6	-3	-1	2	1	2	3	6	9	7	6	9	973 61311 6	6	3	-1	-4	-1	2	-2	-5	-3	1	4	5	2	956 65535 14	12	12	10	5	1	-3	-3	-3	-4	-4	-7	-8	-4	-3	-2	953 58951 2	-3	-3	1	2	-1	-1	-4	-3	1007 65535 -61	-68	-76	-81	-88	-95	-95	-82	-55	-27	8	55	112	162	196	196	968 65535 198	126	45	-14	-40	-42	-37	-27	-25	-23	-25	-28	-23	-27	-24	-22	944 63230 3	1	-1	1	2	2	-3	-1	2	4	4	-1	2	945 65279 1	3	3	-2	-1	-3	-1	-1	-1	-2	1	3	2	2	1	943 32477 1	1	3	3	-1	-1	1	-1	-1	-2	-1	2	944 40959 -1	1	-1	4	3	2	-2	1	2	4	3	-1	-1	-1	938 64509 6	4	4	3	-1	3	2	2	-2	-2	-1	-1	-1	-3	948 65279 -13	-8	-9	-6	-5	-4	-6	2	6	8	5	7	8	13	12	965 65437 -1	-1	-4	-2	-1	3	1	1	-1	3	2	1	2	967 65535 1	2	4	1	-2	1	1	2	-1	-2	-5	-1	-1	2	3	-2	962 49115 -1	2	3	4	2	-1	1	2	4	-1	-4	1	3	960 65531 5	3	-1	1	1	2	4	1	-3	-1	-1	1	2	-3	-1	961 64383 1	2	2	-1	-2	1	3	-2	-1	-1	-1	1	1	1	962 64511 -1	1	5	3	1	-1	2	-1	1	1	-3	-3	-1	2	3	970 65279 -8	-9	-10	-9	-8	-5	-3	4	5	8	10	9	7	8	10	981 65407 2	5	5	5	2	2	2	1	-2	-3	-2	-1	-1	-5	-5	970 65535 8	13	15	15	10	5	-1	2	-1	-3	-6	-6	-8	-8	-10	-10	955 56999 4	2	2	2	3	2	-3	2	-2	-3	-2	941 65535 15	15	13	13	12	12	12	9	-2	-10	-13	-17	-23	-24	-14	4	1059 65535 -86	-54	-16	35	91	134	156	160	130	61	-24	-89	-126	-132	-123	-116	949 16251 -3	-1	3	4	6	2	1	1	4	1	-1	-2	947 61182 1	1	1	-2	-2	-1	1	1	-2	-1	1	3	2	949 49151 -1	2	3	2	2	-2	1	2	4	-2	-4	-4	-2	1	-1	948 63420 2	1	-2	-1	2	2	-1	-1	-1	2	1	1	949 64999 4	3	2	1	-1	1	3	1	-1	-2	1	1	-2	945 45055 -1	2	3	-1	-1	-1	1	1	2	-1	-1	2	3	3	952 65535 -5	-5	-9	-7	-4	-2	-2	-4	-1	1	5	7	8	8	6	9	968 65503 -4	-3	-1	-3	-2	-1	2	4	3	1	1	2	2	4	2	967 47341 1	2	4	3	2	1	2	-2	-2	1	964 65255 6	3	5	2	3	4	2	-2	-2	-2	-3	-5	-3	960 64761 3	2	2	1	-2	-1	1	-1	-2	-3	-1	1	959 65534 1	3	3	5	4	1	-3	-2	-1	1	-1	-1	-2	-3	-2	956 19133 -1	3	1	-2	2	2	3	1	1	962 57087 -1	-1	-2	-4	-2	1	1	3	-2	1	4	5	5	5	975 65535 -8	-4	-1	-1	-1	-1	-1	-1	3	6	4	4	3	3	4	6	976 60927 5	2	-2	2	2	-2	-3	4	8	8	3	-5	-10	-10	956 62715 8	6	3	1	-2	-1	2	-2	-1	-1	-2	-3	952 64751 1	1	3	4	4	1	1	3	3	-2	-3	-2	-4	1003 65535 -63	-72	-76	-82	-88	-94	-88	-69	-44	-18	12	54	106	152	183	196	983 65535 204	159	85	11	-35	-53	-52	-44	-36	-34	-38	-36	-34	-30	-33	-31	949 64510 2	1	1	3	2	-1	1	1	1	-1	-2	-4	-3	-1	947 65470 2	-2	-3	-2	3	3	3	4	-1	2	5	1	-1	-1	947 65469 2	2	2	1	-1	1	4	1	1	-1	-1	1	1	-2	949 64503 -5	-2	-1	3	1	1	-2	1	2	3	2	-1	2	1	946 63663 6	4	-1	1	1	-4	2	2	-1	-3	-3	947 65407 -2	-1	-1	-5	-6	-1	1	-1	-1	-1	1	5	6	8	9	964 63231 -9	-6	-4	-3	-1	-4	5	5	5	5	4	3	5	5	964 63383 4	1	-1	-1	2	3	1	-2	1	-1	-2	-3	962 40943 1	-1	-2	1	4	5	3	2	-1	-1	-2	-2	-4	958 64303 -2	2	4	2	2	-3	-2	2	1	1	2	3	958 49119 2	-3	2	3	3	2	1	-1	-2	1	3	-1	-3	-2	958 56311 1	2	-3	-2	-2	1	3	4	1	3	3	2	1	965 65535 -7	-7	-4	-3	-2	-3	-3	-1	2	4	5	5	3	6	8	9	976 65435 -1	-2	-1	3	5	4	4	2	1	2	3	-6	-2	964 65535 9	13	15	17	12	8	5	3	-3	-4	-9	-10	-10	-12	-13	-11	953 64503 -1	-1	-1	1	2	-4	-2	1	2	3	4	-2	1	2	936 65535 19	17	14	14	15	16	11	5	-3	-5	-4	-7	-11	-23	-29	-22	1041 65535 -109	-86	-58	-25	21	74	119	151	159	128	63	-17	-73	-104	-119	-114	942 59379 -10	-4	1	-1	1	-1	3	4	3	1	3	4	943 65535 1	1	2	1	4	4	2	-1	-3	-1	1	3	-1	-2	-4	-4	942 64367 1	2	-3	-1	-1	1	2	1	-1	2	3	2	1	942 64507 1	-1	1	2	1	-2	-1	2	3	2	-1	-2	2	3	939 65519 5	2	3	2	2	4	3	1	-3	-1	-1	-2	-2	-3	-5	932 65519 2	2	-1	-2	-5	-1	1	2	2	-2	-5	3	5	7	6	953 65535 -15	-12	-6	-2	-4	-1	-1	1	4	4	6	4	4	4	9	9	960 57335 1	1	1	5	5	4	3	-2	-1	1	-1	-2	-3	-3	959 50087 -1	4	3	4	2	-1	-3	-3	-3	955 32764 1	4	3	5	4	1	1	2	1	-1	-2	-3	-1	952 31423 1	-2	-1	2	2	-2	1	3	3	2	2	3	955 59828 2	3	1	-1	1	1	-3	-1	2	965 65535 -12	-10	-8	-6	-5	-2	-2	-1	2	3	6	4	5	10	11	13	974 64507 3	4	1	1	2	-1	-1	-4	-3	-3	-3	-1	3	4	957 65023 17	15	11	6	-1	1	1	-2	-3	-5	-5	-5	-6	-6	-4	950 65471 1	2	2	2	3	-1	-1	1	2	2	-2	-4	-3	-3	1	958 65535 -9	-9	-14	-13	-20	-26	-30	-36	-48	-51	-37	-11	18	49	91	147	1024 65535 135	173	187	168	111	28	-40	-81	-97	-97	-90	-77	-77	-77	-78	-77	945 31613 1	2	2	1	1	1	3	2	1	-2	-1	1	946 13692 -3	3	2	1	1	4	5	5	2	946 59359 1	3	2	-1	3	1	1	-2	1	1	3	2	-1	948 54143 -5	-1	1	-2	-2	5	5	2	-1	1	-1	1	943 65167 3	3	1	1	4	3	3	-2	-1	-4	-5	-3	949 65407 -6	-7	-7	-7	-7	-5	-2	1	3	2	4	8	12	12	13	968 65275 -7	-3	-2	2	-1	-2	-2	1	5	2	1	1	5	7	970 65535 2	3	1	2	2	6	4	2	-1	1	2	2	-3	-3	-2	-3	966 65530 1	5	2	3	-1	-1	2	3	2	1	-4	-3	2	1	962 48346 2	3	3	4	-1	-1	1	-2	-3	1	962 65534 1	-1	-1	1	1	2	2	-1	-2	1	3	2	1	2	-2	962 61375 1	3	2	-3	-1	-1	2	2	-2	-1	1	2	2	2	975 60287 -11	-8	-3	1	-1	1	3	5	3	2	3	8	9	982 48639 3	-1	1	1	1	-3	-4	-3	-2	-2	-1	2	4	4	963 64511 20	16	11	7	1	-3	-3	-4	-6	-7	-6	-8	-5	-5	-8	954 49147 1	3	3	3	2	1	2	6	5	5	3	1	-9	-16	1020 65535 -88	-97	-105	-111	-108	-87	-62	-43	-22	4	36	74	113	144	167	190	1020 65535 211	214	188	118	27	-45	-80	-81	-74	-67	-68	-69	-67	-66	-68	-69	947 48873 -1	2	3	3	1	-2	2	4	3	-3	3	949 32767 -2	-4	-3	1	3	3	2	1	1	2	4	3	1	-1	-1	949 65463 2	1	2	-1	-3	-1	-1	2	2	-2	-2	3	4	1	949 32751 1	1	4	2	3	-2	-2	-1	3	2	-1	1	1	1	948 61438 4	-1	-3	1	3	1	-1	-2	1	2	2	2	2	-1	956 65279 -9	-6	-6	-6	-8	-6	-1	3	1	3	7	9	9	8	8	968 56831 -5	-3	-1	1	3	1	5	3	4	3	-1	-1	1	4	967 40911 4	-1	2	2	4	2	-4	-1	2	-2	-3	1	962 64507 6	8	6	3	2	-1	1	1	-5	-5	-2	-2	-2	-4	959 65535 -1	-1	-1	3	2	1	-2	-1	2	3	2	-1	-3	-2	-3	4	959 65471 1	-1	-3	-2	1	1	-1	-1	-2	2	1	2	1	3	3	967 65023 -5	-4	-3	-5	-5	-3	-1	2	2	2	3	6	9	8	9	982 65497 -7	-7	-2	1	4	3	4	2	3	2	-1	-2	2	976 65535 6	4	5	4	1	3	3	4	8	7	2	-2	-4	-9	-12	-15	957 57229 1	2	-1	-2	1	3	3	2	1	1	-3	938 65535 15	16	17	18	16	14	8	6	-1	-7	-10	-17	-28	-30	-18	6	1040 65535 -66	-35	4	63	116	150	160	136	76	-2	-64	-101	-113	-112	-102	-96	946 63463 -1	-2	-2	-1	3	5	4	1	-1	-3	1	2	-1	945 64299 -1	3	3	4	2	-2	-1	3	1	-1	1	947 32124 -1	-3	-1	1	1	1	3	2	3	3	2	946 65531 3	1	2	-2	-3	-2	1	2	3	-1	-3	-3	-1	2	1	945 32767 4	4	3	2	4	2	2	4	3	-1	-2	-4	-3	-4	-1	941 49647 1	1	-2	-6	-3	-1	3	1	2	6	958 65023 -9	-4	-4	-4	-5	-1	5	4	1	1	3	3	4	4	5	963 58355 -2	-3	-1	-1	2	2	3	4	4	2	3	961 65534 4	4	2	2	3	3	3	-1	-1	-2	-1	-1	2	-2	-1	960 32767 2	1	2	1	1	1	3	2	1	-1	-2	-2	-1	-1	-2	956 65405 -2	-2	2	3	2	-2	-4	-2	2	2	2	-2	-2	3	956 62911 4	2	1	-2	-1	2	1	4	3	2	-2	-2	1	971 65407 -11	-9	-8	-6	-6	-2	-1	2	3	3	3	8	9	9	7	974 8191 3	4	1	2	3	3	4	-1	-2	-5	-3	-1	4	959 65535 20	17	11	8	6	4	1	-6	-8	-7	-8	-6	-6	-7	-8	-8	952 65461 1	3	1	-2	-5	-2	2	2	3	-2	-2	3	-1	968 65535 -21	-22	-25	-30	-34	-38	-47	-54	-57	-45	-28	-3	30	72	128	180	1008 65535 183	200	182	125	48	-20	-63	-82	-87	-78	-69	-66	-66	-67	-66	-65	942 63421 3	3	3	1	2	1	3	2	-2	-1	-1	1	-4	938 65535 -3	-3	1	3	2	2	1	2	1	4	3	-1	-2	-1	3	3	939 64273 3	3	1	-1	-2	1	1	1	1	940 60711 1	1	1	-2	-1	1	-2	2	3	-1	934 64767 3	2	6	7	4	2	1	1	1	-3	-5	-8	-6	-5	932 65279 -4	-5	-6	-5	-3	1	-1	-2	1	2	5	6	6	8	9	954 65535 -8	-7	-5	-5	-5	-2	1	3	4	1	2	3	4	5	6	4	959 47865 -2	1	3	4	-1	1	4	1	1	-3	-1	954 61370 4	1	-1	4	5	3	3	-2	1	-1	-2	-4	951 63403 2	3	3	3	2	1	3	1	-2	-2	-3	-3	949 53867 -4	-2	1	-2	3	1	-1	2	3	949 63423 3	2	-1	-1	4	2	1	-2	3	2	2	-1	-1	1	957 65279 -5	-5	-3	-5	-6	-3	-2	2	3	1	3	7	7	8	6	968 65535 -3	-1	2	2	5	3	2	1	3	1	2	-1	-3	-3	-1	1	959 65535 9	5	7	8	14	17	11	5	-3	-3	-5	-7	-11	-13	-16	-15	944 65279 3	3	3	-1	-2	-1	2	1	-3	-3	-1	1	2	2	-1	928 64511 13	13	16	15	10	-9	-14	-18	-23	-33	-32	-18	8	29	46	1049 65535 -55	-28	7	57	108	146	166	157	104	18	-64	-114	-133	-127	-122	-112	933 63871 2	3	3	3	1	1	-1	-3	-2	1	3	1	2	934 64239 -2	-2	2	1	1	-1	-1	3	-1	-1	-1	1	2	934 56575 3	3	1	4	2	-1	-2	2	3	1	-1	-2	-1	934 60339 2	1	2	-3	-1	2	2	-5	-1	2	2	934 65243 -1	2	2	3	2	1	-1	2	3	1	-1	1	1	931 63231 2	-1	-1	-3	2	2	-1	-1	2	2	1	3	2	4	947 65535 -10	-5	-7	-7	-8	-5	-1	3	3	2	1	5	7	7	10	9	956 57313 -3	-3	2	-1	-2	-1	-1	2	5	3	1	952 65375 3	2	-2	2	3	5	1	-1	-1	2	1	1	-3	-3	948 65527 2	5	5	1	1	-1	3	4	3	-2	-2	-1	-1	-2	-2	942 64507 1	4	3	4	3	-1	-1	1	3	1	-1	-2	-2	2	942 65337 2	1	-1	-2	2	3	5	1	1	3	1	-1	945 56895 -4	-2	-2	-3	-3	-1	-2	1	5	6	8	8	959 63359 -6	-5	-3	-1	-3	-4	-4	5	4	4	1	5	2	6	959 65279 4	1	-1	1	5	6	3	1	5	9	6	-1	-8	-12	-13	939 65535 6	6	3	1	-3	-1	1	2	3	-1	-2	-1	-1	1	1	-3	932 65535 3	6	6	7	6	6	3	4	1	6	4	1	-4	-10	-17	-21	1023 65535 -115	-126	-132	-125	-101	-70	-39	-4	49	109	152	170	160	111	25	-56	925 65535 -5	-18	-13	-5	-1	5	4	5	7	3	2	2	5	6	4	3	926 31707 1	3	4	3	-1	-1	-1	2	1	-1	1	2	927 44271 2	-1	1	2	-5	-2	-1	2	2	-2	2	926 65010 3	3	4	-1	-1	-1	4	1	-1	-3	-1	2	927 65407 -3	-2	-1	2	1	-1	-3	1	2	1	1	1	3	4	5	926 61439 3	3	2	2	4	2	-1	-3	-3	1	1	1	-1	-3	-3	933 65535 -7	-6	-9	-7	-9	-5	-3	2	1	1	1	6	10	14	14	12	947 47985 -1	2	3	2	-1	-1	3	3	-1	2	948 47039 1	-2	2	3	2	1	-2	3	3	2	1	-3	-2	942 64943 4	6	4	1	-1	-1	3	3	-2	-1	2	-2	-3	939 56575 -1	-1	3	3	3	3	3	1	1	-4	-5	-2	-1	936 47103 2	-2	-1	4	4	2	-1	-1	1	3	3	-1	-2	-1	939 49098 -2	1	-1	-1	-1	1	4	2	1	1	1	945 65535 -9	-9	-6	-5	-5	-4	-6	-1	3	6	5	5	6	8	10	13	957 65495 3	3	1	2	4	4	4	2	-1	-2	2	-4	-9	-5	947 65407 8	16	18	14	10	4	3	2	-4	-9	-9	-9	-9	-10	-13	930 65151 2	2	2	3	4	4	1	2	-1	-2	-4	-2	1	1	913 65279 15	14	12	12	13	13	6	-9	-11	-13	-20	-25	-20	-4	22	1015 65535 -53	-17	34	88	129	154	152	115	46	-30	-82	-109	-114	-108	-100	-98	921 62719 -4	-4	-2	2	2	5	4	3	5	-1	1	-1	2	920 65514 3	3	1	1	4	2	1	-1	-2	-1	-3	-1	-2	920 32255 2	1	2	-2	-2	2	3	-1	-2	-1	2	5	4	2	921 57211 -1	-1	2	3	1	-1	2	1	-1	2	2	-2	3	924 65479 1	1	-1	1	2	5	2	1	-2	-1	-1	-3	-1	917 62463 6	4	5	2	-1	3	-1	-1	-5	-3	-1	-2	-1	-2	926 65535 -12	-13	-8	-6	-5	-2	-3	-3	1	5	4	6	6	7	11	12	941 65279 -2	-3	-5	-5	-4	1	1	-1	1	3	4	5	2	1	2	942 64831 4	2	1	-1	-1	-1	2	-3	-1	3	1	2	-1	940 31199 -1	2	4	3	1	2	2	-1	-4	-3	-2	-2	936 65512 2	2	-1	-2	1	3	4	3	2	-3	-2	2	936 65535 2	4	5	3	-2	-3	-2	-1	1	1	-2	-2	-1	2	3	-2	937 65275 -5	-2	-1	2	3	-2	-3	2	5	3	-1	-2	1	1	946 65471 -7	-8	-7	-4	-4	2	5	4	-2	4	7	8	6	2	4	956 65459 -3	2	3	3	2	4	4	5	4	-3	-2	-4	-6	943 65535 4	7	13	16	14	5	3	-1	-3	-3	-7	-9	-11	-8	-10	-6	931 61119 4	3	1	1	2	2	-3	2	2	-1	-1	-2	-4	918 65535 12	10	14	10	9	9	7	1	-2	-8	-13	-21	-28	-20	-2	23	1027 65535 -59	-19	30	84	132	157	163	129	66	-11	-73	-109	-124	-128	-121	-112	922 49151 -2	-4	-1	2	3	3	1	1	1	3	2	2	2	-2	1	923 65462 2	2	1	-1	-2	-1	1	5	1	-3	-2	3	-1	924 31997 -1	2	4	2	3	2	3	1	-1	-1	-2	2	924 49151 2	-2	-3	1	1	2	-3	-2	-1	1	1	3	2	-2	1	921 65407 6	7	7	4	1	-1	1	2	-1	-5	-5	-1	-3	-4	-5	918 65343 -5	-5	-2	-2	-3	-2	-4	-2	1	1	2	4	7	10	940 65535 -9	-10	-9	-7	-4	1	1	2	2	6	6	8	8	6	5	7	947 61435 1	4	2	2	1	3	4	3	1	-3	-2	-1	-2	-3	943 64767 -1	-1	1	3	2	2	2	4	1	-1	-1	-1	1	4	942 65487 3	3	2	1	4	5	1	-1	-2	-1	1	-2	-5	-4	939 61423 -1	1	3	-3	-4	2	2	1	1	-4	3	2	1	3	943 48877 -3	1	3	3	2	-1	2	2	2	-3	-3	2	947 65535 -1	-5	-6	-6	-5	-1	-1	-3	-2	-2	2	3	8	7	9	11	963 57327 -3	1	-3	-3	-1	4	6	5	3	2	1	1	-1	-2	961 59391 -2	2	2	1	2	8	12	11	4	-2	-5	-7	-7	-9	942 65527 7	6	1	2	1	4	1	-1	-3	-2	-1	-2	-3	-3	-4	927 65535 15	15	17	13	11	12	14	11	7	-1	-11	-13	-17	-22	-24	-14	1073 65535 -134	-100	-65	-17	40	92	128	152	160	146	99	21	-63	-130	-159	-161	930 65535 -13	-6	3	3	5	5	6	3	1	1	1	1	1	-2	-3	-2	931 65535 -1	-1	1	1	-2	-2	-1	2	2	1	1	1	2	3	3	2	933 64511 -4	-2	-2	1	1	-5	-3	2	4	3	1	-1	-1	2	5	934 46963 5	-2	-1	2	1	2	1	2	3	-1	-1	933 65529 -1	1	4	-2	-2	1	4	5	4	1	-2	-2	-1	-1	933 63487 -3	-3	-1	1	-1	-4	-1	-1	1	1	2	2	4	6	7	951 65535 -10	-6	-8	-4	-4	-1	1	1	1	2	2	6	6	4	5	6	956 65535 4	4	3	3	1	2	3	3	1	-2	-4	-5	-1	1	-2	-2	953 31999 -1	2	5	5	2	3	2	1	-1	-3	-4	-1	-2	949 61147 3	2	-1	2	2	2	-3	-2	1	1	-3	-1	948 65530 2	7	4	2	-1	1	1	2	2	-3	-4	-1	-2	-1	949 59199 -4	-3	-2	-1	-3	-1	2	1	1	4	3	5	962 65535 -5	-8	-8	-6	-2	3	3	1	-1	2	5	5	5	5	8	7	972 28671 3	2	-2	-4	-4	-1	-1	-1	-3	-2	1	4	6	4	953 65535 16	9	10	7	5	1	-3	-4	-2	-3	-3	-3	-5	-6	-5	-3	946 65479 6	4	1	3	3	2	2	-1	-2	-2	-1	-5	-7	1002 65535 -65	-73	-78	-83	-92	-99	-97	-78	-50	-24	11	62	122	168	193	189	961 65535 187	108	31	-20	-42	-40	-31	-24	-20	-20	-19	-18	-20	-21	-20	-17	940 44987 1	-2	3	2	4	1	-2	-1	3	2	-3	-2	940 56767 -1	1	-1	-3	-1	2	2	-1	1	3	4	3	4	940 49135 2	3	5	1	2	-2	-1	1	1	2	-2	-1	2	2	942 65535 2	1	-1	-2	1	2	4	2	2	1	3	4	1	2	-4	-4	939 60733 1	2	4	-2	-1	2	-3	-2	2	2	-1	949 63487 -12	-7	-4	-2	-1	-2	-1	2	6	6	3	2	6	7	10	960 65503 -1	-2	-4	-3	-1	2	3	2	-3	-2	1	2	2	1	3	959 65407 4	6	5	2	-1	-1	2	4	-2	-2	-3	-2	1	-3	-6	953 65518 1	-1	1	3	4	2	-1	1	1	2	2	-2	-1	-1	949 55291 3	1	-2	1	-1	-2	-2	-1	-1	1	1	1	1	948 61055 4	4	5	-4	-3	-2	-2	-1	2	1	3	4	3	949 61421 -1	-1	1	-1	-3	-4	-3	4	5	3	-2	-1	5	962 65023 -9	-9	-9	-7	-4	-1	-3	-1	2	5	9	11	8	9	9	967 65279 6	6	4	2	-1	2	2	-2	-3	-1	3	2	-2	-5	-12	944 65455 7	6	2	3	1	-2	-3	-1	1	-1	-1	-2	2	1	938 53247 7	3	3	4	5	4	4	2	4	3	1	-5	-14	-16	996 65535 -76	-76	-86	-95	-103	-100	-86	-67	-44	-19	20	76	131	170	187	172	950 65535 161	87	24	-15	-33	-36	-28	-22	-16	-16	-15	-14	-17	-16	-16	-14	934 57343 2	1	-1	1	3	4	2	-1	1	1	2	3	-2	-2	-1	932 64751 -1	2	3	-2	-5	-1	2	2	-2	1	4	5	3	934 31229 3	2	1	1	2	3	2	1	-1	-5	-2	3	934 60671 2	1	-1	3	3	-2	-1	2	4	5	3	-2	-3	928 62975 7	8	8	2	-2	1	-1	-2	-3	-2	-2	-2	-3	-3	936 65535 -14	-11	-11	-7	-7	-5	-7	-5	2	6	7	9	7	9	14	17	952 65022 -1	-2	-2	-4	-2	1	-2	-2	1	4	7	7	4	3	951 62959 4	4	2	2	-1	-1	-1	-2	-2	1	2	2	2	947 56957 2	1	4	4	2	1	3	1	-3	-5	-3	2	945 63481 3	1	-3	-1	1	1	1	-1	-1	1	2	1	-1	946 56295 -2	1	-2	-2	2	4	4	2	-3	2	2	2	946 31743 2	2	3	2	-4	-3	-1	-1	1	-3	-3	1	4	11	961 65535 -2	-2	-6	-4	-2	-1	-1	1	1	3	5	7	6	4	2	4	961 63487 5	6	5	3	1	1	5	8	7	3	-1	-5	-5	-11	-16	939 56559 1	2	2	3	1	-1	2	3	-3	-4	-2	1	931 65535 11	9	6	8	8	10	9	7	6	3	-1	-5	-11	-14	-18	-25	1037 65535 -136	-137	-124	-102	-78	-48	-8	40	95	134	157	158	123	52	-30	-91	930 65535 -10	-17	-12	-4	3	3	1	1	4	6	4	5	1	6	4	7	931 65503 5	3	1	-1	2	2	1	-2	-4	-2	2	1	1	1	1	932 60863 -1	2	1	-4	-2	-1	1	-2	1	2	1	1	1	931 65399 -1	-3	-1	2	1	-1	-3	-1	2	1	1	-1	2	4	934 44911 1	-1	2	5	3	2	-1	-1	1	-2	-2	-4	927 65399 4	5	5	2	-1	1	1	2	-1	-3	-1	-1	-1	1	932 65535 -8	-8	-10	-4	-6	-6	-5	-3	-1	3	5	7	7	8	14	16	955 65535 -6	-5	-5	-5	-1	2	-1	-1	-2	2	5	5	6	4	2	3	956 65343 4	4	6	2	-2	-1	2	2	-3	-3	-1	1	-1	-2	953 65521 -1	1	-1	1	1	1	-2	-3	2	5	2	1	3	949 65518 8	2	-2	-2	2	2	2	2	-2	-4	-2	2	-1	-3	949 65519 -1	2	1	1	-1	-1	4	2	2	1	-1	2	2	1	1	948 65407 -2	-1	3	4	3	1	-1	-2	2	1	-2	-1	-1	1	2	951 65535 -2	-4	-8	-4	-1	-1	1	-2	-1	-2	2	5	4	5	4	8	967 65023 -5	-4	-4	-3	-4	-3	4	4	3	1	2	2	4	4	2	967 64511 -2	-1	-1	3	2	-3	-2	3	9	8	5	-2	-5	-6	-8	947 57311 7	4	1	-1	3	3	2	1	-1	-1	1	-1	-3	-4	940 65487 6	7	7	5	1	3	4	7	4	4	-3	-6	-15	-20	994 65535 -80	-81	-83	-86	-95	-102	-92	-71	-49	-18	13	53	107	162	203	221	976 65535 230	180	102	20	-37	-56	-55	-50	-45	-41	-38	-39	-39	-42	-43	-42	934 31935 2	1	-1	-2	-2	1	-3	-1	2	3	3	2	933 47083 -1	4	3	1	-1	-1	1	2	3	-2	2	3	936 61439 1	-1	-3	3	2	2	-1	-2	2	1	3	2	1	-2	-2	935 64511 -1	2	-1	1	-2	1	2	-1	-2	-2	1	1	5	5	3	936 65023 -1	-1	3	3	4	4	1	2	3	1	-1	-4	-3	-1	1	936 65503 1	-2	-3	-3	-1	1	-2	-3	-1	-3	2	5	3	2	6	953 65503 -8	-5	-2	-2	-3	-3	1	3	4	2	2	3	5	3	4	957 56315 -4	-1	3	2	-4	1	2	2	2	2	-3	2	3	955 65391 4	2	2	1	4	4	3	2	-2	1	1	-2	-3	-4	951 59900 1	2	2	-1	2	2	1	-1	-1	-1	1	946 64493 1	1	1	3	2	-2	-2	1	1	1	-2	-3	2	947 64508 1	-1	-4	-2	-1	1	1	-1	2	4	4	2	2	948 61375 -1	3	1	-2	-1	1	4	2	-2	-2	1	3	1	4	964 62463 -14	-11	-4	-2	-2	-2	3	6	9	5	5	6	5	6	964 65519 4	1	-2	-1	1	3	3	1	-3	-3	-2	2	1	3	7	951 64511 20	15	12	8	2	-2	-3	-4	-4	-8	-7	-4	-4	-6	-7	940 32383 2	3	4	3	2	-1	4	3	1	-2	-2	-3	-7	1001 65535 -76	-85	-89	-95	-103	-103	-90	-66	-42	-15	23	72	127	167	190	194	964 65535 208	158	85	22	-25	-47	-57	-57	-50	-41	-36	-32	-30	-28	-28	-27	934 7143 1	3	-1	-2	-3	3	1	-2	-1	1	935 32765 -4	-5	-1	-2	4	3	3	-2	1	2	4	2	2	-1	937 57335 -1	-1	-1	-1	-2	2	3	4	2	-2	-3	2	1	-3	936 49023 -2	-2	3	1	-1	-2	-1	3	2	-2	-2	-1	2	2	937 16255 -2	-2	1	2	1	-2	1	1	2	3	2	-1	-1	937 7679 -1	-4	-4	2	1	1	-1	1	1	3	3	1	950 65023 -11	-9	-3	-1	1	1	3	1	4	6	5	5	4	3	5	954 65533 3	3	1	1	2	4	3	-1	-2	-2	-1	1	2	1	-1	952 64443 4	4	4	2	-3	1	4	3	-5	-3	-1	-1	-5	946 65533 -1	-1	2	2	3	2	-2	-1	3	3	1	-1	-2	-4	1	942 61415 6	4	-1	2	3	5	2	-2	-3	-1	-4	-4	-4	942 65502 -2	-2	-1	-2	-2	-1	-1	2	4	2	-1	1	2	2	945 65471 -5	-5	-3	-1	-4	-5	-7	-6	-3	3	4	5	8	10	12	961 65531 -4	-4	-4	1	3	2	4	5	3	3	4	4	2	-3	-2	954 65535 5	6	7	4	-1	1	6	11	9	5	-5	-6	-7	-9	-11	-14	937 32254 1	3	6	7	4	-1	-3	1	-1	-2	-3	-4	-3	924 65535 12	10	8	11	12	13	14	13	8	2	-2	-5	-10	-19	-29	-29	1023 65535 -110	-86	-60	-26	22	81	132	160	159	121	47	-28	-79	-103	-111	-109	930 65421 -7	1	2	3	3	4	1	2	1	-4	-3	1	931 48127 1	-1	-3	-2	2	-2	-3	1	3	5	4	4	1	2	931 46069 2	2	-3	2	2	1	-2	-3	-1	2	3	934 49023 -1	3	4	2	1	-1	-1	2	3	-1	-3	-1	2	2	932 57327 4	4	1	2	6	5	1	-3	-3	-2	-2	-1	-5	-6	927 65215 4	5	5	2	-1	-3	-2	3	-3	-3	-1	2	2	4	944 65407 -16	-11	-9	-5	-2	-1	-4	-4	5	8	8	5	8	11	15	954 65527 5	2	1	-2	-1	-1	-1	-3	-2	-1	4	3	1	-2	-1	953 65535 -3	3	4	4	2	1	1	3	2	-1	-2	-1	1	1	1	-2	948 32511 1	2	2	3	3	1	1	2	1	-2	-6	-4	-2	3	946 57327 4	3	1	3	5	3	-1	-3	-3	-1	-2	-2	-2	-3	945 61327 -2	1	1	-1	-3	-1	2	4	2	3	2	3	951 65471 -3	-3	-1	-3	-1	-3	-4	-7	-2	4	2	3	3	7	10	966 65406 -4	-3	-5	-5	-2	3	2	1	1	4	4	3	3	1	964 62447 1	3	3	3	1	2	6	6	3	-3	-4	-6	-12	943 64933 3	2	-2	2	1	2	-2	1	1	-1	1	930 65503 12	10	8	9	10	13	10	11	7	5	-6	-10	-15	-25	-31	1038 65535 -132	-112	-82	-53	-17	35	90	135	163	162	122	51	-30	-85	-114	-124	934 65527 -17	-7	-1	2	1	2	1	2	4	5	7	3	1	4	5	934 65247 4	2	-2	-1	-2	-1	2	-1	-2	3	4	2	-2	-2	936 46070 -2	1	1	3	3	2	1	-1	-1	1	-3	936 59383 -3	-1	-2	-1	-2	-1	1	2	3	2	1	3	2	936 61367 5	1	-2	2	3	4	1	-1	1	2	-3	-4	-6	929 64615 4	4	2	1	-2	-2	1	-1	3	2	1	942 65535 -11	-11	-8	-7	-4	-5	-5	-3	2	6	9	9	4	9	9	14	958 49086 -3	-4	-1	2	1	2	3	-1	2	3	4	3	1	958 64767 3	2	2	2	-1	-3	1	-1	-3	-1	1	1	-1	-1	957 64751 -2	-2	-2	1	2	-1	2	4	4	-1	-1	1	-1	954 61423 5	3	-1	2	3	2	2	-2	-3	-1	1	1	-1	-5	954 60191 1	2	-1	-3	-1	2	-1	4	3	3	2	953 65405 -1	1	3	4	2	2	-1	-1	2	1	-4	-6	-1	3	958 65535 -3	-4	-7	-6	-3	-2	-2	-2	-3	-1	1	8	10	9	7	8	974 61398 -5	-5	-2	-2	1	4	4	2	2	-3	1	3	965 65535 3	5	11	15	17	12	2	1	-4	-3	-3	-9	-13	-10	-10	-9	950 65503 1	3	-2	1	3	2	3	2	-1	-2	1	2	2	-1	-1	938 65023 11	15	13	13	8	3	-8	-14	-19	-30	-34	-26	-3	25	54	1058 65535 -35	12	73	125	163	176	161	109	20	-63	-116	-138	-134	-121	-112	-112	939 65495 5	3	1	2	4	3	2	1	-2	-2	1	-1	-2	-1	938 62839 1	4	3	2	-1	1	-2	-2	-2	2	1	1	938 44029 -1	-1	1	-1	1	2	2	2	2	-2	-1	1	937 26302 -1	-2	2	2	-2	-2	3	2	1	-1	937 65466 3	3	3	4	1	1	1	4	2	-3	-2	-1	-1	941 65535 -6	-5	-5	-2	-2	-2	-3	-4	1	4	4	5	6	5	7	12	959 65465 -3	-5	-4	-3	1	3	5	4	-1	1	1	4	2	959 64511 1	2	2	1	-1	1	2	3	2	-1	1	-1	1	1	-3	954 32767 1	3	3	2	3	1	-2	1	3	1	-1	-4	-2	-1	1	951 57303 2	2	2	2	3	2	1	-3	-1	1	-3	-3	-4	951 44991 -1	1	-2	-2	-1	1	2	-1	-1	1	2	3	2	952 65535 -3	1	1	4	4	1	-1	-1	2	2	2	1	-1	-2	2	3	963 65535 -8	-9	-11	-9	-4	-3	2	2	-1	4	5	8	11	9	8	10	973 65407 3	6	5	2	-2	-2	-2	-3	-1	-4	-6	-4	-1	6	5	959 64447 15	8	5	8	5	-4	-4	-2	1	-1	-5	-6	-7	-6	948 61434 4	3	1	1	2	2	2	-3	-3	-1	-2	-2	-2	947 32767 3	1	-3	-8	-15	-23	-24	-31	-42	-46	-30	-1	32	72	124	1011 65535 115	162	183	165	103	17	-57	-93	-92	-79	-70	-66	-70	-70	-69	-65	940 65419 7	4	-1	-1	1	1	3	-1	-1	2	-1	-1	943 64951 -1	1	2	1	-1	-2	2	4	-1	1	3	3	3	944 25433 -1	1	-4	-3	1	-2	-2	3	943 46975 2	-2	-1	4	3	2	3	4	3	2	-1	-2	-3	940 64895 3	5	4	1	-2	-2	2	-3	-1	-2	-1	1	1	-1	945 61311 -6	-5	-2	-1	-2	-6	-3	1	2	3	4	5	8	9	956 65278 -1	-2	-4	-2	2	2	5	-3	-1	2	3	3	3	-1	953 65277 6	6	6	3	-2	1	1	-2	-5	-5	-4	-1	1	-4	949 57071 -1	2	3	2	1	1	2	3	3	1	-1	-1	-1	944 57327 5	-1	1	3	6	4	3	-1	-1	1	-1	-2	-1	-1	944 31968 2	3	1	-2	-3	2	1	-3	946 64239 -6	-4	-5	-3	1	-1	3	3	2	-1	2	2	9	959 63487 -2	-4	-2	-4	1	1	-2	-4	-1	3	3	5	3	2	5	962 63487 4	4	1	1	-1	1	2	-2	-2	-1	2	5	3	-4	-7	939 65501 9	6	5	6	1	-2	-4	-4	-3	-1	-2	-4	-2	2	932 65535 7	4	3	2	5	6	7	7	3	2	3	4	-2	-9	-17	-22	1008 65535 -103	-113	-118	-112	-98	-78	-58	-42	-22	2	33	76	119	156	180	184	956 65535 206	135	60	1	-36	-50	-48	-38	-30	-27	-26	-29	-30	-28	-27	-26	926 65535 3	2	-2	-3	-3	1	3	1	-2	-2	1	4	1	-1	-1	-1	927 65525 1	1	5	5	3	2	1	2	-1	-1	-4	-3	1	1	927 65499 -3	-2	1	2	2	3	-1	2	1	3	1	-1	-1	-1	924 49111 1	-3	-3	1	3	7	5	2	1	1	-2	-1	-2	917 65403 7	6	5	2	-2	-1	1	1	-3	-5	-2	-1	1	-1	928 65535 -13	-14	-10	-9	-7	-4	-6	-2	3	5	8	8	6	11	14	16	945 65534 -2	-3	-2	-1	2	2	3	1	-2	-1	2	3	3	3	-1	946 65463 2	5	6	1	-2	-2	-1	2	1	-1	-1	2	1	-1	941 65535 2	3	2	4	2	2	-1	1	2	3	2	-1	-4	-2	-2	1	939 46843 1	-1	-1	5	2	-1	-2	1	2	1	-1	-2	937 60926 2	2	1	-2	-2	2	2	-1	-2	-1	1	2	4	938 65015 -2	-1	1	2	3	-1	-1	2	3	1	1	-1	2	2	947 65151 -6	-7	-10	-9	-6	-1	1	2	1	7	10	10	11	10	958 65471 2	5	8	6	1	1	1	2	-1	-3	-3	-2	-3	-1	1	945 65535 14	15	11	10	7	3	-3	-5	-4	-3	-4	-7	-8	-8	-8	-8	934 55247 4	3	-2	3	2	1	-1	-1	1	1	-4	-3	923 65535 10	12	11	12	9	7	3	-3	-7	-12	-21	-27	-27	-12	12	38	1027 65535 -35	9	65	117	154	167	145	88	13	-55	-100	-117	-119	-114	-104	-102	926 61167 3	1	1	1	4	3	-1	-2	-3	-1	-2	-1	-1	926 60351 -1	3	3	-1	2	2	2	-2	-2	2	3	1	2	926 64237 -3	1	2	5	2	-1	1	1	3	-1	-2	2	926 65503 1	-1	-2	1	1	3	2	1	-1	-2	1	1	-1	-2	-1	925 65515 2	4	5	2	1	3	-1	2	4	1	-2	-1	-1	-5	921 54269 -3	-2	2	-3	-2	1	2	2	2	-3	-1	5	936 65535 -10	-11	-13	-10	-4	-1	2	2	2	7	6	10	8	9	8	10	949 37871 -2	-1	2	2	2	2	-3	1	2	2	1	947 65518 -1	1	4	4	3	-1	-1	-1	1	3	1	-3	-2	-1	945 46972 1	-2	-3	1	-1	-2	-2	1	3	3	2	943 63468 2	2	3	1	1	1	2	2	1	-3	-2	3	943 56319 -2	-2	2	2	-3	-1	1	4	4	2	-2	-1	1	4	943 64479 3	3	-1	-1	2	2	-1	-2	-1	1	2	1	-2	-1	954 65535 -9	-8	-9	-7	-6	-3	1	6	7	7	2	2	7	8	8	6	962 65502 -1	-1	3	4	4	5	1	1	2	2	-3	-5	-3	-2	954 65535 7	7	8	14	16	13	7	2	-3	-3	-5	-7	-8	-15	-17	-15	940 65021 1	2	3	1	-2	-2	1	2	1	-4	-2	1	2	-1	922 65535 15	16	15	17	14	9	-1	-8	-9	-12	-19	-26	-28	-17	8	37	1047 65535 -59	-24	23	80	128	154	163	144	90	9	-63	-106	-130	-135	-135	-127	931 65535 -4	4	6	5	4	2	2	3	2	-1	-4	-4	-3	-2	-3	-3	928 60275 -2	-2	-2	2	-3	-2	4	4	5	4	5	930 65469 3	2	-4	-1	-1	1	4	1	-1	1	3	4	3	-1	932 65471 1	3	3	2	-2	-1	1	2	3	-3	-3	-1	2	2	-3	930 6643 2	4	-1	1	4	5	1	3	1	930 65279 4	2	1	-1	2	3	2	-2	-2	-1	1	1	-1	-1	-3	937 65503 -7	-4	-5	-6	-7	-8	-3	-1	1	1	3	8	10	12	13	952 64239 -2	-1	1	4	2	-3	2	3	3	-1	-1	1	1	952 48767 1	-3	-1	-1	1	2	1	1	5	3	2	-2	-2	950 32759 2	1	-2	-3	-3	1	1	2	1	-2	-2	3	3	1	948 64223 2	1	3	6	5	-1	3	2	1	-4	-2	-2	1	945 61949 4	1	-1	-2	-1	-1	-2	1	4	4	1	2	946 63910 1	1	2	2	-2	3	2	-2	1	1	948 63339 -3	-2	-2	1	1	-1	-1	1	2	1	3	7	962 65535 -6	-8	-7	-3	-1	-1	1	-1	-1	1	4	6	8	8	5	6	967 64991 1	2	2	-1	-3	-1	2	2	-1	4	7	5	-1	-6	946 64351 10	4	3	4	4	-2	-2	1	-3	-5	-3	-3	-2	939 65471 8	6	2	3	5	6	4	1	1	2	3	2	-3	-12	-19	931 65503 -15	-17	-23	-33	-43	-46	-41	-36	-26	-12	15	27	48	83	130	1018 65535 94	140	168	171	138	77	-1	-64	-94	-100	-95	-88	-85	-84	-84	-81	935 65535 3	1	-1	-2	-2	1	2	1	-1	-1	1	4	4	4	-2	-2	937 64983 1	2	-1	-1	-3	-2	2	3	1	1	1	1	-2	937 56559 -3	-3	1	2	2	4	3	1	-2	-2	-1	-1	937 63485 -1	-1	-1	-3	1	2	3	-1	-2	3	3	3	2	2	938 61302 4	4	2	-2	-1	-3	3	2	-1	-1	1	1	935 31535 1	1	4	1	-3	-3	2	-2	-3	2	3	943 65535 -6	-7	-8	-7	-2	-1	3	2	2	2	5	9	8	6	3	4	953 32759 2	2	3	-1	-1	-1	4	3	2	-1	-1	1	1	-2	951 64253 -1	-3	-2	2	1	-1	2	4	3	2	-2	-3	3	948 65483 5	3	1	2	3	2	2	1	-1	-2	1	-2	-3	945 65023 1	3	4	2	-2	1	4	1	1	-3	-2	-1	2	1	-2	945 57309 -2	-1	3	3	2	1	1	2	3	-1	-2	-4	1	946 20187 3	2	2	1	-4	-2	2	1	2	6	963 65535 -9	-4	-5	-5	-5	-8	-1	2	4	5	5	6	8	6	7	6	959 63999 5	6	8	6	5	4	8	8	3	-3	-9	-11	-13	-11	943 61409 5	4	-1	2	3	3	-1	-5	-2	-3	-1	936 65535 7	6	5	3	3	5	5	7	7	6	3	1	-1	-9	-16	-21	1022 65535 -114	-121	-119	-103	-74	-44	-8	43	102	148	169	153	98	17	-53	-92	930 61439 -15	-15	-7	3	6	6	5	5	4	5	4	6	4	2	1	933 61247 2	2	1	-2	-3	-1	1	-2	-1	3	4	3	1	933 31197 1	2	2	2	2	3	3	-4	-2	-2	3	934 65517 2	1	1	2	2	3	2	-1	-3	-4	-5	1	2	-2	933 61223 1	4	4	-1	-2	-1	1	-2	2	-2	-3	925 64489 3	2	1	2	3	-4	-4	-2	2	3	-2	4	942 64127 -10	-11	-11	-7	-4	-1	1	6	9	9	8	8	10	956 65263 -3	-1	-1	2	-1	-1	1	1	2	-1	1	4	2	1	955 48623 -1	3	5	3	1	-1	2	4	1	-3	-5	1	3	953 57327 3	3	1	-1	3	4	1	-1	-3	-1	1	-2	-4	-1	952 40927 -2	-2	-4	-4	-2	2	2	1	2	2	4	3	1	951 15355 1	3	1	-2	-3	-2	1	2	-1	-3	3	2	956 65535 -3	-3	-6	-4	-2	1	-1	-2	-3	-1	3	6	6	7	7	7	973 65534 -6	-4	-2	-2	-1	2	3	6	3	4	2	-1	3	5	2	966 65535 8	7	6	6	10	10	9	8	4	1	-3	-8	-11	-11	-13	-13	951 40703 1	-1	3	3	2	-2	-2	1	2	2	1	-3	-4	955 65535 -6	-5	-8	-13	-20	-29	-32	-36	-47	-50	-40	-13	17	52	93	147	1014 65535 137	179	196	182	125	42	-33	-81	-96	-98	-97	-100	-97	-92	-82	-72	940 65502 2	-1	-2	-2	-1	2	2	-1	-2	-1	3	2	2	2	941 63474 2	4	4	1	-1	1	3	1	-1	-1	-2	2	942 62463 -2	-4	-3	1	-2	-1	2	5	3	3	1	1	2	4	942 65245 3	1	-2	-2	1	4	2	-2	-3	2	3	1	-2	941 63935 3	2	2	1	-2	3	2	-3	-1	1	-1	-2	-1	941 65535 -5	-3	-4	-3	-3	-4	-5	-3	-1	1	1	4	6	7	11	15	961 65471 -3	-4	-4	-3	-1	-1	-1	-1	1	3	4	4	2	2	2	964 56307 1	3	1	1	2	4	1	-1	-2	-4	-2	-1	959 40791 1	2	4	2	1	-1	4	1	-2	2	1	956 57337 4	2	-1	-1	3	3	-1	-2	-2	-1	3	2	1	956 63156 1	4	3	4	1	2	1	-1	-3	2	956 64509 -1	-2	1	-1	1	1	-1	2	4	3	4	1	-2	3	965 65535 -5	-8	-10	-7	-7	-2	-2	2	2	4	3	6	7	8	9	10	978 63993 1	4	8	2	2	2	-1	-3	-6	-4	-2	-3	967 49023 3	6	11	14	15	12	5	1	-4	-6	-10	-12	-10	-10	950 65527 6	6	3	3	3	5	1	-3	-2	-3	-1	1	-1	-2	-2	947 65527 2	3	2	-1	-8	-14	-20	-20	-27	-34	-40	-29	30	58	100	1033 65535 64	118	159	176	163	110	30	-53	-98	-110	-105	-96	-92	-90	-87	-87	943 64569 2	1	-1	-2	1	2	2	5	3	-1	943 27063 2	2	-1	3	1	-3	-4	1	2	2	945 63949 -1	-1	-1	2	1	-1	2	2	-1	-1	1	944 49119 1	-2	-2	-1	2	3	1	-1	-2	4	3	2	1	1	944 60415 3	3	2	1	2	3	1	-1	-1	-4	-2	1	-1	-2	944 61423 -5	-4	-5	-1	-1	1	-1	1	3	1	1	1	4	7	956 65535 -7	-6	-6	-7	-3	2	1	-1	-2	1	4	7	6	5	4	4	963 47085 -1	-1	2	1	3	4	3	2	1	-1	-1	1	959 65503 2	-1	1	4	3	1	2	-3	1	2	-1	-1	-2	2	2	958 63159 4	2	2	2	2	2	-2	-1	-1	-2	-3	-4	954 61950 1	4	3	1	3	2	2	-2	-1	-2	1	2	954 48510 -1	1	3	4	1	-1	3	3	3	1	-1	-1	959 64479 -2	-3	-5	-7	-4	-2	-4	-5	-3	4	7	12	14	10	974 47558 -2	-3	-3	-1	5	5	2	1	1	972 65535 3	1	2	3	-1	-1	-3	-3	3	10	11	5	-3	-8	-6	-8	951 61431 7	4	3	2	5	3	1	-2	-1	-1	1	-2	-3	-4	934 65471 18	18	18	18	14	12	11	15	9	-8	-14	-19	-24	-30	-23	1027 65535 -99	-70	-37	5	60	111	143	151	128	73	-3	-65	-100	-107	-98	-87	938 59391 4	1	1	4	2	-2	-1	-3	-2	1	3	1	-2	-5	937 65527 -3	1	2	1	-2	-1	1	4	4	1	-1	-2	4	3	-1	937 32383 -2	2	3	1	1	-1	2	1	-1	-1	-2	-1	2	938 15227 -1	-1	-1	-1	-1	1	2	5	2	-1	-3	936 63416 3	6	4	1	-1	1	2	2	-4	-7	-2	933 65527 -4	-1	1	3	3	1	-1	-3	-2	1	1	-2	-1	1	4	945 65535 -8	-7	-8	-7	-2	-2	2	2	2	1	3	5	4	5	7	6	952 24573 3	2	2	1	2	2	4	1	-3	-4	-1	2	-2	948 49149 2	-1	2	1	-2	-4	-3	-1	4	3	1	1	-1	-1	944 61439 3	2	1	2	4	5	3	1	-3	-1	2	2	-1	-2	-3	943 31679 1	-1	3	1	2	2	1	-1	-1	2	2	2	1	942 65535 -1	-1	1	4	4	2	3	1	3	3	2	-1	-2	-4	-2	-1	946 63039 -4	-4	-5	-3	3	1	1	2	5	4	4	4	959 65518 -4	-2	-3	-3	-3	-2	1	4	4	5	3	2	3	1	954 65535 7	6	5	6	5	4	6	9	9	6	-2	-9	-8	-13	-12	-11	936 65535 4	1	-1	-3	1	3	4	1	2	-3	-1	2	2	1	-3	-2	922 65535 14	16	19	13	9	12	13	12	3	-5	-9	-13	-19	-26	-24	-13	1024 65535 -92	-65	-30	17	70	117	147	154	126	68	-9	-72	-104	-114	-111	-102	927 65374 -2	-1	-3	-1	2	1	3	1	1	3	2	3	1	930 53237 2	3	-1	-3	1	3	4	2	2	1	2	-3	928 59903 -5	-4	-1	-1	-1	1	3	3	2	2	1	2	2	927 63455 2	2	-1	1	2	2	-1	-2	-2	1	3	-1	-1	-1	926 65533 1	4	3	1	1	-2	2	3	3	2	-2	-3	-1	1	-6	919 24511 -1	2	1	-3	-2	-3	-2	-1	-1	1	3	5	10	939 65471 -11	-10	-10	-8	-5	-3	-1	1	1	5	8	8	8	7	10	951 65487 -2	-1	1	-1	-2	-1	2	4	3	3	1	2	1	-1	948 64415 1	1	1	4	2	-4	-4	-2	1	-1	-1	1	3	946 57083 6	4	1	2	3	4	-2	-3	-1	2	1	-1	-3	943 56255 3	3	1	1	1	2	2	-2	-1	-1	1	1	1	944 56187 -3	-2	3	1	-3	-1	3	3	2	1	2	3	944 51709 3	1	1	-2	-1	-1	2	2	3	3	4	961 64991 -13	-6	-5	-3	-2	-1	1	1	1	2	8	7	8	9	964 65375 3	1	1	3	2	-2	-4	-2	3	-3	-2	2	5	8	949 65023 19	11	9	5	5	4	-2	-5	-11	-8	-4	-2	-6	-8	-7	943 63406 -1	1	1	-1	-2	1	2	1	-1	2	2	1	935 65535 7	5	5	6	-7	-15	-19	-20	-21	-30	-34	-29	-9	20	51	91	1030 65535 44	97	139	164	169	132	58	-28	-87	-112	-109	-97	-92	-90	-90	-94	937 65471 1	1	2	1	-2	-3	-1	3	2	1	-2	1	4	2	3	938 56813 -2	-3	2	2	1	-3	2	5	2	-2	-3	3	937 65535 1	-1	-1	-1	1	1	3	1	-1	-3	-1	3	2	3	1	-1	939 32767 1	5	3	1	-1	1	4	3	-1	-3	-2	1	2	-1	-1	936 64758 1	1	1	3	1	1	1	3	3	-1	-3	-1	938 63711 -2	-4	-1	-3	-1	-2	-2	2	3	3	4	5	956 65503 -9	-6	-5	-5	-5	-2	-1	3	3	3	1	5	8	8	5	962 62428 2	1	1	3	-1	-3	-1	2	1	-2	-2	961 65535 1	1	-1	-2	-1	3	5	1	-1	-2	3	3	3	2	-2	-4	958 58815 1	4	1	-2	3	2	-2	-2	-1	1	2	-1	955 65535 2	1	1	4	2	1	-1	-3	-2	2	2	-2	-2	-3	-1	-1	955 32607 -1	-3	-1	1	2	1	1	-1	4	4	6	1	1	958 40575 1	-1	-1	-3	-2	-3	-4	-2	3	5	9	9	971 65535 -3	-4	-1	4	2	-3	-4	-5	-1	2	4	5	1	3	6	7	974 63231 5	1	1	-1	-1	2	-1	-5	-1	2	5	6	4	-2	955 62847 12	11	10	5	-1	1	-4	-5	-6	-4	-4	-4	-3	947 65279 3	2	2	2	4	2	2	3	5	6	3	2	-3	-7	-12	1008 65535 -80	-85	-92	-99	-103	-101	-88	-65	-41	-13	26	79	133	170	186	179	966 65535 178	114	38	-16	-41	-42	-33	-23	-20	-22	-24	-24	-20	-17	-19	-21	943 65023 -2	-1	1	2	4	3	-1	3	2	3	1	-4	-1	2	3	944 16254 -1	-2	1	1	2	-1	1	1	3	2	1	-1	944 64222 3	5	3	2	-1	2	-1	-2	-3	-1	2	3	945 65013 -3	-3	1	3	5	2	1	4	2	1	1	-3	3	942 58879 2	2	2	2	2	-1	-3	-1	2	1	1	-1	-2	947 65455 -4	-2	-1	-3	-6	-3	-1	1	2	1	4	5	8	8	961 64511 -6	-5	-3	1	1	-2	-1	2	4	4	4	3	1	4	6	963 59191 4	2	-1	2	3	3	2	3	-1	-3	-4	959 62454 1	5	2	2	1	3	2	-1	-3	-2	2	1	957 65182 1	-1	2	5	4	2	1	-2	-1	-2	-2	-2	955 61437 2	1	-2	-1	2	3	2	1	-1	2	3	2	1	-2	955 32471 3	2	1	-1	-3	-2	1	-1	-2	3	4	2	963 65535 -6	-8	-5	-4	-4	-5	-5	-1	3	7	8	5	1	2	7	13	976 65527 1	1	1	1	2	5	4	2	2	-3	-1	1	-1	-6	-7	971 65471 -1	1	4	7	8	8	13	13	7	-6	-8	-9	-9	-11	-15	951 65407 4	1	2	5	5	3	1	1	1	-2	-3	-4	-3	-2	-1	934 65535 15	16	15	13	17	16	13	10	2	-2	-5	-5	-14	-26	-31	-19	1035 65535 -100	-74	-47	-11	36	88	128	147	141	101	38	-33	-83	-106	-113	-109	940 65531 -9	-4	-3	1	-1	1	-1	-3	5	7	7	4	2	2	3	940 55199 2	4	-3	3	3	1	1	4	2	1	-1	-2	941 11723 1	-1	-1	4	3	2	-1	-2	-2	940 64383 -3	-3	-1	1	1	-1	-2	2	2	2	1	-1	3	4	943 63483 1	-1	-2	-2	2	4	2	2	-2	2	3	2	-2	-4	937 63469 4	4	4	2	-2	-2	-2	-2	-1	-3	1	2	-2	945 65535 -10	-7	-6	-5	-6	-4	-4	-3	-2	4	5	6	6	7	10	11	959 65471 -1	-2	-2	-1	-1	2	2	2	2	1	1	5	1	-1	-2	957 63294 3	6	4	2	-1	-1	3	-2	-3	1	1	1	955 38655 2	4	3	1	1	-1	1	1	-1	-5	-2	1	952 64894 3	2	-1	-2	-2	1	1	-3	-2	1	3	1	-1	952 15869 -1	-3	-4	-2	4	6	4	4	-1	1	2	-2	952 60407 -3	-2	-1	1	1	-2	1	4	3	1	-1	1	6	968 65535 -10	-8	-5	-4	1	2	-1	-3	-1	2	4	6	7	7	5	3	967 64627 7	8	4	4	2	-1	-1	1	2	-3	-9	949 48639 5	3	5	4	3	2	3	2	-1	-1	-3	-5	-3	-1	943 65535 5	5	1	1	3	5	5	5	3	3	4	6	2	-5	-13	-17	1030 65535 -107	-113	-122	-124	-109	-83	-51	-18	25	77	121	149	158	136	69	-8	939 64507 25	-7	-17	-14	-6	3	-1	3	6	7	5	3	2	3	939 61419 3	2	1	2	3	3	3	2	-1	-1	1	-1	-2	938 65517 1	1	1	-1	-2	-1	1	2	2	3	1	2	3	2	938 62327 -1	-1	1	1	-4	-2	5	2	-1	-1	-1	2	937 49119 2	2	3	4	5	5	1	1	-1	2	1	-4	-4	-7	931 7737 -1	-5	-4	-1	-2	-2	1	-2	942 65535 -11	-13	-11	-8	-6	-5	-4	-1	3	4	5	9	9	10	15	17	959 61439 -1	-4	-1	1	3	2	1	1	-2	1	2	3	1	2	1	958 62907 1	2	2	1	-1	5	3	-1	-2	-4	1	1	955 56318 -1	-1	3	5	1	-1	1	4	3	1	-1	-3	-2	953 48696 1	-1	-3	-1	3	2	1	3	2	953 40376 -2	-1	-4	-2	1	1	-2	-3	-1	952 7651 5	5	1	-1	3	5	3	3	11	971 64511 -6	-4	-4	-4	-2	1	5	4	2	7	7	4	2	1	2	969 65279 3	4	4	2	1	-1	-2	6	8	8	1	-3	-3	-7	-11	950 64285 4	3	3	3	2	-3	-3	-1	-3	-5	2	934 65535 17	16	15	15	16	17	16	9	-1	-10	-12	-14	-24	-29	-21	1	1080 65535 -111	-77	-36	16	70	110	141	148	125	75	18	-35	-72	-100	-124	-143	933 65535 -11	-23	-25	-13	-1	8	8	6	8	10	8	7	4	4	5	7	940 65531 -1	-1	-3	-3	1	3	2	1	2	2	1	4	3	-2	-3	940 32703 3	-1	-2	-2	-1	1	2	3	-1	-2	1	3	3	2	942 56567 -2	-3	2	-1	2	2	4	4	1	-3	-1	1	940 61303 4	2	-1	1	3	2	4	1	-1	3	-1	-2	-4	939 55415 2	1	1	-3	-1	-2	-4	2	2	2	954 65535 -12	-10	-9	-4	-2	-2	1	1	1	4	7	5	4	3	6	9	960 64223 3	2	-1	-2	1	2	1	-1	2	2	1	1	-1	959 62271 3	4	3	1	1	2	-3	-3	-2	-2	-1	-3	955 48239 -1	1	2	3	2	2	1	-2	-1	-1	1	951 57080 4	1	-1	2	2	1	-1	-2	2	3	1	952 63903 2	3	2	3	-1	1	-1	-1	-1	2	3	1	961 65535 -8	-9	-7	-4	-5	-4	-4	-4	1	5	9	7	4	4	6	9	972 28567 1	1	2	1	3	4	2	1	-1	-2	-3	962 65535 9	10	12	14	16	9	5	3	-5	-4	-8	-12	-10	-9	-10	-11	949 32205 -1	3	3	2	2	-1	1	-1	-3	-2	-1	984 65535 -37	-43	-54	-61	-64	-67	-75	-79	-66	-43	-10	27	73	128	174	208	1018 65535 193	204	188	144	82	6	-55	-89	-97	-95	-88	-83	-77	-77	-78	-78	940 65277 -1	-3	1	2	2	1	1	2	2	4	2	-1	-3	1	941 64863 2	1	-3	-2	-2	3	1	-2	2	2	1	1	1	944 65503 -2	2	3	2	-1	-2	1	2	1	-1	-1	-2	1	2	1	944 24431 -1	2	2	-1	-1	-3	2	1	-3	-2	2	3	942 65535 2	2	-2	1	2	2	3	2	-2	-5	-1	3	2	-2	-3	-2	944 49151 -3	-1	-3	-4	-4	-1	-1	1	1	1	1	3	5	6	9	957 59891 -7	-5	-2	3	-1	2	3	4	2	4	2	958 38367 2	-1	2	2	1	1	2	2	1	-1	-2	953 60795 5	7	5	-1	-1	1	1	-2	-1	-3	-2	-2	948 65471 3	-1	1	2	4	3	1	-2	-1	1	-1	-3	-2	-3	1	947 49055 -1	-3	-1	1	4	4	2	2	4	4	2	-3	-1	947 61087 1	3	2	-2	-1	-1	-1	-1	-1	4	6	4	957 65535 -7	-8	-8	-6	-7	-4	-2	1	3	7	7	3	2	5	6	9	966 57334 3	3	1	3	2	1	-2	-2	-1	3	3	-2	-1	949 65535 22	19	13	8	4	-1	-4	-1	-5	-7	-8	-8	-6	-2	-5	-6	943 65535 -4	-1	2	6	4	2	1	1	3	3	3	1	-1	-1	-1	-4	932 65535 7	8	4	3	1	-4	-9	-14	-21	-32	-34	-25	-6	18	42	76	1017 65535 43	98	137	160	154	115	46	-20	-70	-98	-106	-99	-91	-86	-84	-85	933 65367 -3	-2	-1	2	4	3	3	1	2	-1	-1	2	4	933 57196 3	1	1	-1	2	1	1	-3	-1	2	-1	933 32679 -1	-2	-2	-4	-2	1	2	2	-1	3	3	1	933 31675 -1	2	4	2	-2	-6	-4	2	2	1	1	4	931 65503 4	3	3	1	3	5	4	1	-2	-2	1	-1	-3	-7	-7	924 65275 3	3	3	2	1	-1	2	-1	-1	-2	-3	-1	1	-1	940 65535 -16	-16	-12	-7	-1	-1	1	3	5	8	7	8	7	5	7	10	954 65521 -1	-1	-4	-4	-1	1	2	1	2	1	2	3	-1	956 32703 1	-1	1	1	1	3	5	4	-2	-2	-2	1	-2	-5	951 32765 -1	-1	2	2	1	-1	-1	-1	2	2	2	-3	-1	3	948 65247 6	3	4	1	3	4	4	-2	-1	1	1	-1	-3	-5	949 62463 -2	2	-1	-2	1	3	3	1	-1	-1	1	4	2	1	948 16375 1	3	2	-1	-4	-2	-1	3	3	-1	-1	-1	3	962 64511 -10	-9	-8	-8	-2	2	1	1	1	4	7	5	7	8	8	968 65271 3	5	3	-1	-1	-4	-3	1	-2	-5	-6	7	6	1	950 65023 14	9	7	5	2	2	-3	-4	-3	-3	-3	-4	-6	-7	-5	945 48382 2	-1	-3	-3	1	-1	-1	1	5	5	3	3	950 65535 -3	-2	-6	-11	-18	-25	-29	-30	-38	-45	-39	-19	12	41	80	133	1017 65535 117	158	179	170	122	48	-29	-81	-98	-97	-88	-81	-79	-81	-79	-76	940 48765 3	-1	-3	-1	1	1	-1	1	4	2	4	1	940 64955 1	4	2	2	-1	-3	2	3	-3	-1	1	1	2	942 64495 -4	-4	-2	1	2	-1	-1	1	2	2	1	-1	2	2	940 44799 1	3	1	2	2	-1	1	1	2	3	2	-2	-1	938 65471 4	5	5	4	2	1	1	3	1	-1	-3	-2	-4	-4	-6	935 65391 -4	-4	-3	-2	-2	-1	-3	-3	3	3	2	4	9	12	958 64511 -9	-9	-10	-8	-4	1	1	2	3	3	7	6	7	4	6	966 30709 2	1	1	-2	1	2	1	2	-1	-3	3	-1	962 64637 2	-1	1	4	2	1	2	3	1	-2	-1	2	962 65261 4	2	-2	-2	2	3	3	-2	-1	1	-2	-3	-3	961 65503 1	1	1	-2	-3	-3	-1	3	1	3	-2	1	4	3	1	959 64383 1	-1	2	5	3	-1	-3	1	1	-1	-2	-1	-2	2	960 40703 1	-2	-1	-1	-1	-3	-2	2	5	5	2	2	2	974 63167 -8	-7	-4	-2	-2	-3	1	1	1	5	11	10	9	980 23535 -1	1	-3	-2	-3	-2	-2	-1	5	8	7	2	962 65535 14	11	9	5	2	2	2	-1	-5	-6	-6	-1	-3	-4	-6	-8	955 64511 3	5	2	3	1	2	1	3	1	-1	-1	-2	-1	-2	-10	1013 65535 -75	-84	-86	-88	-99	-103	-98	-77	-49	-16	19	68	124	172	200	201	973 65535 199	119	36	-23	-45	-42	-30	-23	-22	-25	-24	-21	-20	-23	-24	-24	948 65383 3	4	4	1	-2	-2	-1	1	2	-1	2	2	-1	947 55675 -2	-3	4	2	-1	2	1	1	-1	1	2	949 65459 -3	-3	-1	-1	2	5	2	2	2	2	1	-1	-2	951 48525 -3	1	1	-1	-2	2	2	-1	2	1	950 49135 1	2	5	6	2	1	-1	1	2	1	-4	-4	-3	1	953 64735 -2	-3	-5	-5	-4	-1	-3	-4	4	5	7	6	7	967 65535 -4	-2	-1	-1	-3	-2	1	2	3	4	2	1	3	5	3	4	970 64999 -2	-4	-2	1	1	1	-3	1	3	3	-2	1	2	966 61183 5	3	1	2	2	1	-1	-2	-1	1	1	-1	-2	-3	964 49151 -1	2	2	-3	-2	2	4	4	2	-1	1	1	2	-1	-1	961 57311 -1	1	3	1	1	-2	-1	-1	2	1	-2	-4	2	1	963 65404 1	-1	-1	-1	-1	2	4	2	-1	-1	1	4	2	965 40799 -1	-2	-3	-5	-4	-1	-1	-1	3	7	9	11	982 63487 -7	-6	-4	-2	3	1	3	5	6	7	5	1	-1	1	1	977 65535 7	6	2	1	2	8	13	12	4	-2	-3	-1	-5	-9	-14	-16	960 62975 1	2	3	2	-3	3	2	2	-2	-4	-2	2	-1	-3	945 65535 11	10	12	14	14	11	11	10	6	2	-5	-10	-15	-23	-28	-20	1105 65535 -160	-136	-111	-75	-25	27	69	97	113	123	118	93	52	-4	-63	-117	947 65535 3	-16	-18	-14	-11	-2	3	5	7	6	6	5	6	6	7	7	950 64319 1	1	2	3	3	-1	-2	2	1	-3	-4	1	2	951 55293 1	2	-2	1	1	1	-1	-1	1	3	2	1	-3	952 24575 2	2	-4	-5	-2	1	1	1	-3	-2	3	3	2	1	953 48127 -2	3	5	3	-2	-1	4	3	1	-2	-3	-3	-3	-2	948 61167 4	5	1	2	4	3	-1	-1	-2	-1	-2	-5	-3	957 65519 -9	-5	-3	-5	-5	-5	-1	2	3	5	3	4	6	4	6	964 65013 -3	-2	4	2	3	1	3	3	2	2	1	-3	2	962 65247 6	3	1	2	2	4	2	-1	-2	-2	-1	-3	-4	-5	957 65198 1	2	5	3	1	-1	-2	1	-2	1	2	2	955 64445 2	2	1	3	2	-1	-3	-2	2	1	-2	-2	2	953 51004 3	1	2	2	1	2	1	4	4	955 65263 -1	-1	1	-2	-6	-4	-2	-3	-1	-2	2	6	10	10	971 61695 -8	-8	-5	-3	5	7	6	3	3	2	2	1	967 65535 4	3	3	4	5	2	3	5	7	5	2	-1	-2	-7	-11	-17	947 55775 5	3	-1	-3	1	3	1	1	2	2	1	-2	943 65535 1	2	5	7	7	6	2	1	4	4	4	1	-5	-8	-12	-14	1026 65535 -104	-117	-123	-115	-92	-63	-30	10	58	108	146	160	141	82	5	-62	935 64511 -4	-15	-9	-1	4	2	2	1	3	4	3	7	6	6	5	936 65535 -1	-3	1	3	4	2	1	1	1	3	2	2	-1	-2	-1	2	937 24543 1	1	2	3	4	4	-1	-2	2	1	-1	-6	-5	936 65023 -2	-1	-2	-3	-1	-2	2	5	3	3	-1	2	2	-1	-1	933 32759 2	1	3	4	3	1	-1	1	3	3	1	-3	-3	-4	926 65279 1	3	3	1	2	3	1	-3	-4	-5	-3	2	-1	1	1	946 65535 -14	-10	-9	-6	-5	-6	-2	2	6	6	4	4	7	10	12	13	955 57341 2	-1	2	2	2	-2	-1	-1	1	2	1	-1	-2	3	952 65391 5	4	2	2	3	4	2	1	-3	-2	1	-2	-2	-4	948 28655 3	1	-2	-2	-2	2	2	1	-3	1	5	4	2	947 49015 1	1	2	1	1	-2	-1	2	1	1	-2	-1	-2	948 45055 2	1	2	4	1	-1	-1	-2	-2	1	1	1	-1	-3	955 65535 -11	-7	-6	-6	-9	-8	-4	2	2	6	4	5	8	8	10	11	964 65407 2	2	3	5	3	1	-3	-1	3	3	2	-1	-2	-1	-1	953 65535 15	14	13	8	4	2	2	-4	-4	-5	-6	-7	-6	-7	-7	-9	941 63415 -1	2	2	2	-1	-1	-1	3	-1	-2	2	2	1	938 65535 1	-4	-10	-16	-19	-24	-36	-43	-40	-27	-11	7	24	40	67	100	1027 65535 57	106	142	160	159	123	51	-31	-84	-106	-110	-100	-90	-89	-89	-90	937 65279 3	2	4	3	-1	-2	1	2	1	-1	-2	1	1	-1	-1	937 52733 -2	-4	2	2	-3	1	3	3	2	-2	-1	2	938 28603 -1	-1	4	2	3	2	-2	2	2	3	-2	-1	939 5629 3	-1	4	2	2	1	-1	1	1	-1	933 65407 4	2	2	3	3	1	-1	-2	1	2	-2	-2	-3	-5	-1	938 65535 -4	-6	-8	-9	-5	-2	-3	-1	-4	-3	5	7	9	10	11	11	959 60927 -7	-4	-3	-1	-1	3	3	4	1	1	2	5	3	1	958 15983 2	2	3	2	1	1	1	-4	-2	-1	-1	956 65503 2	2	1	-1	1	4	4	1	1	-3	1	-1	-2	-4	-4	951 31221 2	5	2	-2	2	1	3	1	-2	1	1	952 65006 -1	1	1	3	4	2	-1	1	3	-1	-2	-1	-3	950 30477 1	-1	-2	1	1	2	2	2	1	963 65535 -9	-8	-7	-6	-7	-2	1	4	4	3	1	1	4	6	9	9	970 49119 1	1	3	2	1	-2	-5	-1	-2	-4	-3	-1	4	9	952 65535 21	15	11	8	4	4	-1	-3	-8	-8	-6	-6	-4	-5	-7	-8	944 64751 -1	1	2	3	-1	-2	1	1	-1	1	2	-1	-4	947 65535 -10	-14	-20	-23	-24	-27	-30	-34	-40	-39	-29	-6	20	53	93	141	1015 65535 124	160	170	153	103	33	-33	-76	-88	-86	-78	-73	-72	-78	-76	-77	937 61415 3	4	2	-2	-2	-2	-1	2	1	-1	-1	-1	-1	936 57067 -2	-4	3	3	3	2	1	3	4	1	-1	1	936 46991 1	-2	-3	1	2	1	1	-1	1	1	-1	936 30704 2	3	2	-1	1	2	4	2	1	-3	935 16383 2	2	4	4	1	1	-1	2	1	-2	-2	-4	-1	-1	939 65471 -4	-6	-6	-6	-6	-2	-2	-2	-1	3	8	10	9	9	9	955 65503 -2	-2	-2	-2	-4	1	3	3	2	-1	1	1	3	3	2	954 49119 1	1	2	2	3	-1	-1	1	2	-1	-1	-1	-2	-1	949 61435 3	2	1	2	2	2	1	-2	-3	-3	1	1	-2	-4	946 58967 -1	5	4	-1	1	2	-3	-1	-2	-2	946 61439 -5	-4	-3	1	-1	-4	-3	2	3	1	3	2	1	4	4	949 64507 1	1	-1	-1	-2	-1	-1	-2	-3	2	2	4	3	4	965 65535 -8	-4	-2	-1	-3	-4	1	5	5	5	1	2	4	6	5	2	962 48639 2	3	5	5	3	-1	5	10	9	2	-7	-8	-8	-7	942 65535 8	3	4	2	4	3	2	2	-1	-4	-3	1	-2	-4	-3	-2	931 65535 11	12	13	12	8	8	10	10	9	7	-2	-8	-14	-14	-24	-35	1036 65535 -142	-129	-108	-90	-80	-65	-47	-20	18	63	100	129	142	133	86	16	933 65535 45	-5	-22	-17	-5	1	3	1	1	1	2	5	5	1	-1	-2	933 47028 -1	1	1	-1	1	2	1	-2	-3	2	934 65119 -1	-1	3	3	5	1	2	-1	-1	-3	-2	-2	1	933 63359 2	-1	-3	-2	4	3	1	-2	-2	-2	1	2	2	2	934 64511 1	4	4	3	-2	2	5	2	-1	-2	-5	-4	-1	-1	-4	928 64510 -1	-1	2	2	2	-2	-2	1	4	3	1	-1	-1	1	939 65535 -9	-10	-11	-11	-4	-3	2	2	3	3	7	9	9	8	7	9	951 25599 1	2	3	3	4	2	-2	-4	-2	2	2	3	950 49007 3	3	3	3	-1	-2	-2	2	2	-5	-5	-2	1	946 65535 7	3	2	3	4	4	4	-1	-3	-3	-1	-2	-2	-4	-3	-4	943 65486 -1	1	1	-1	-3	-2	-1	2	3	2	3	3	2	941 40957 2	-1	2	2	2	-3	1	1	2	1	-1	-1	3	946 64991 -3	-3	-6	-3	-5	-2	-1	-1	-1	2	5	9	8	9	961 65023 -4	-5	-5	-6	-6	-4	5	8	8	6	3	4	3	1	2	956 65503 7	6	6	4	9	9	9	6	2	1	-5	-7	-12	-13	-12	940 65407 1	1	-1	-1	-2	3	4	4	-1	-2	1	1	-2	-3	-2	929 65503 10	11	10	10	9	10	10	10	9	6	-10	-13	-12	-19	-26	1027 65535 -127	-114	-87	-60	-29	16	68	117	152	163	134	69	-9	-72	-102	-110	929 57342 -11	-3	-1	2	1	2	4	2	-1	-1	5	4	3	1	933 65502 -1	1	2	-2	-3	-2	2	2	2	1	-2	1	1	2	932 65513 -1	-1	-1	3	3	2	-1	-2	-1	1	1	1	3	935 16383 -1	-3	1	2	3	1	-1	-1	1	2	3	1	-2	-3	934 65525 3	2	3	2	1	-1	-2	2	1	-1	-2	-2	-1	-2	926 65470 5	3	5	4	5	3	-2	-5	-1	-1	-3	-3	-4	-1	935 65407 -8	-8	-10	-9	-7	-3	-1	-1	2	5	6	9	9	11	13	957 65471 -7	-5	-2	-3	-2	-2	-1	2	3	1	1	2	5	6	5	958 32767 2	3	5	3	4	-1	-1	1	1	1	-1	-5	-3	1	1	956 57305 2	2	-2	2	3	1	1	2	-1	2	3	-1	956 65471 2	4	2	4	2	1	-3	1	1	-2	-3	-2	-1	1	-2	953 48123 1	-1	1	3	-2	-3	-1	3	4	2	2	1	4	956 53229 1	2	2	4	3	1	-2	-1	-1	-2	1	-3	964 65535 -8	-6	-6	-9	-9	-9	-6	-1	1	3	5	6	7	11	11	10	976 65535 -4	-4	-3	1	2	1	2	2	3	5	5	1	-2	-3	-3	1	971 61375 5	5	2	5	12	17	11	5	-2	-4	-7	-12	-15	-15	956 48639 -2	-1	-1	-2	-2	2	2	2	-1	-2	1	1	5	1	951 65535 5	4	5	7	8	5	6	4	5	7	6	2	-4	-12	-19	-20	1046 65407 -120	-127	-136	-136	-119	-98	-67	-35	50	106	146	170	172	136	66	953 65279 76	14	-14	-21	-16	-8	-2	-3	-3	-3	-4	-5	-4	-2	-4	948 52735 -2	-1	4	2	-2	2	4	4	1	-1	-2	-1	1	949 63229 2	-1	-3	-1	2	2	-1	-2	1	2	4	3	-3	950 64495 -1	2	3	-1	-2	2	2	2	1	-1	1	2	1	1	949 24439 1	2	2	2	1	-3	2	1	1	1	2	2	949 61247 3	3	-1	4	5	5	2	1	2	1	-2	-3	-5	952 65279 -6	-4	-3	-4	-4	-6	-3	-1	-2	2	1	5	8	10	9	971 62463 -8	-7	-5	-4	-4	-1	2	5	7	4	4	2	4	7	974 65275 2	1	2	-2	2	2	1	1	-1	1	1	3	-1	-3	972 62463 1	3	3	2	2	2	3	-2	-1	-3	-3	-1	-2	-4	968 49149 1	-1	3	2	1	-1	-1	1	1	2	1	-2	-3	2	964 57339 5	3	-1	2	2	2	1	2	-1	-1	2	2	-4	-1	966 62423 -1	2	1	-2	-1	2	4	3	-2	2	3	1	969 63487 -5	-5	-3	-2	-2	-3	-4	-1	-1	1	1	5	6	10	12	986 65471 -3	-3	-5	-4	-1	2	3	2	1	2	5	6	2	2	-2	985 31999 2	1	1	2	-1	-3	-1	1	3	8	3	-3	-8	966 64463 9	7	6	4	4	-3	-4	-2	3	-1	-2	-5	-3	959 65527 5	3	5	3	5	4	7	5	4	2	5	4	-7	-18	-25	1052 65535 -119	-126	-134	-129	-114	-89	-64	-40	-12	29	69	110	145	163	171	148	971 65535 170	80	11	-27	-32	-28	-19	-14	-14	-15	-14	-15	-17	-18	-17	-17	953 46559 1	-3	-3	1	3	1	-2	2	2	2	1	1	957 65015 -1	1	2	1	-2	-3	2	1	2	-1	-1	1	1	1	957 54046 -2	-1	-2	-3	-2	-1	-2	-2	-2	955 63455 1	2	-2	-2	2	2	1	-1	-1	3	2	-1	-1	-3	955 63167 -1	3	1	1	-1	2	2	-2	-2	2	1	1	-2	960 65535 -8	-8	-6	-4	-2	-4	-4	-3	3	4	5	4	6	6	10	13	974 65080 -3	-3	-2	-1	1	2	2	3	3	4	974 64952 1	4	3	1	-1	-1	1	1	-1	-2	-2	970 48485 1	-1	1	2	2	-2	2	3	-2	1	969 53055 1	3	2	1	1	1	1	3	1	-1	-2	-3	966 31983 1	4	1	-3	-3	2	1	1	-1	3	3	1	969 65533 -3	-3	-1	2	3	1	1	-1	1	2	2	1	-2	-1	1	974 65535 -5	-3	-5	-5	-4	-2	-3	-3	-2	-1	1	7	10	8	6	8	989 38902 -4	3	2	3	4	4	1	-2	-3	1	1	979 65535 6	4	8	14	18	13	6	1	2	2	-4	-9	-13	-17	-14	-12	964 65275 3	3	1	-1	1	1	1	-1	-1	1	2	1	-3	-4	947 65535 15	16	17	17	16	14	10	3	-4	-9	-14	-25	-30	-26	-11	13	1039 65535 -56	-25	26	83	128	151	148	109	39	-35	-86	-106	-106	-95	-86	-85	952 65495 3	1	-1	-2	1	4	3	2	1	-1	-1	-1	-1	-2	953 36863 -3	-1	-2	3	3	2	1	-2	-2	1	3	1	1	952 49011 -2	1	2	3	1	-2	-2	1	1	3	1	3	953 59387 3	3	-1	1	1	1	-1	1	3	4	3	-2	-1	950 65406 1	3	3	4	2	-1	1	3	-1	-1	-2	-1	-2	1	946 31103 -3	-2	-1	2	-2	2	1	-3	1	1	7	9	965 65471 -8	-7	-8	-5	-1	2	3	2	2	2	5	5	5	4	2	970 64975 -1	1	3	3	-1	-2	1	-1	-2	3	4	5	1	967 57327 2	-1	3	4	7	3	1	1	1	1	-4	-2	-1	-2	965 55275 3	1	-2	1	2	4	1	-2	-1	1	-1	-3	964 49151 1	3	1	-2	-3	-2	-2	-2	-4	-1	1	4	4	4	1	964 56317 -1	-1	1	2	3	1	1	1	1	1	-1	-2	2	975 64511 -9	-9	-11	-11	-5	1	-1	-1	-1	4	7	10	11	11	11	983 65535 3	2	4	4	-1	1	1	4	1	-2	-5	-7	-1	6	6	-2	966 63455 9	5	5	4	-2	-2	-7	-5	-3	1	1	1	3	4	961 65119 7	4	1	-3	-1	2	3	-2	-1	-3	-3	-2	-2	996 65535 -36	-39	-45	-52	-58	-67	-73	-75	-62	-42	-14	16	62	117	171	205	995 65535 214	181	112	36	-21	-53	-63	-59	-48	-41	-41	-39	-42	-43	-41	-40	953 65373 1	1	-3	-2	1	3	3	2	-3	2	3	2	-1	953 64759 2	1	2	3	-1	-2	1	2	-1	-2	1	2	1	954 49117 -1	-2	1	1	1	-1	-3	1	2	4	-2	-2	2	953 65503 4	3	1	2	3	3	3	2	2	-3	2	2	-2	-5	-5	945 65151 3	2	4	1	1	-1	-1	-3	-2	-4	-2	2	3	3	962 65535 -15	-14	-9	-6	-3	-4	-3	1	3	6	5	6	8	8	10	12	975 31743 -1	-3	-2	-1	2	3	1	-1	1	3	3	2	2	1	975 65023 1	2	3	2	-3	-1	2	2	2	-1	-3	-2	1	1	1	973 32754 1	2	2	4	2	-1	-1	1	1	2	2	-1	972 34687 1	3	4	1	-3	1	1	1	2	-2	-1	972 32759 1	2	1	1	-4	-2	-2	1	1	-1	-2	1	3	3	975 63463 -1	-4	-6	2	-3	-3	-2	-1	1	3	-1	6	11	991 65534 -3	-5	-5	-4	-1	-2	1	2	3	2	7	6	5	3	3	988 65503 4	4	6	4	1	-1	4	8	13	8	-4	-5	-4	-11	-14	972 64756 2	-1	-1	-1	2	1	1	2	2	1	-1	965 65535 7	7	4	2	5	6	6	4	4	3	3	6	-1	-9	-18	-24	1058 65535 -120	-128	-124	-110	-81	-50	-10	42	100	146	172	162	117	40	-43	-100	960 57339 -18	-12	7	6	5	2	2	2	4	4	4	2	2	2	961 50879 3	1	1	2	1	-1	2	2	3	2	-2	963 61406 -1	3	1	-1	-3	-2	1	2	3	-2	-1	-1	2	963 49504 -1	-3	-2	-1	1	962 65482 1	-1	-2	-2	1	3	2	1	-1	-2	2	-2	962 61367 -1	1	2	-2	-2	-2	-1	1	-2	-1	3	5	7	979 63231 -11	-9	-5	-2	1	-1	1	3	7	6	5	3	5	6	986 36827 1	2	3	2	1	-2	-1	-1	2	-2	-4	982 59899 2	2	1	-2	1	3	1	-1	-1	-1	1	-1	978 64574 3	2	2	4	4	1	3	-1	-3	-3	-3	979 30919 -2	-1	-4	-2	-2	-5	-1	-1	-4	979 61439 -3	-1	2	-2	-1	-2	1	3	2	1	-1	2	3	4	2	986 65535 -4	-6	-9	-3	-5	-3	-3	-4	-1	4	7	5	5	4	7	13	999 65535 -1	-1	1	-1	1	5	5	3	1	-3	-2	-1	2	1	-4	-4	988 65279 8	17	20	16	7	2	1	-5	-7	-8	-11	-11	-10	-9	-10	975 31605 -3	1	1	2	2	-3	-1	-1	2	-1	1	959 65279 21	19	19	18	15	14	10	-5	-12	-11	-17	-24	-26	-17	6	1063 65535 -65	-32	12	67	113	143	155	132	73	-6	-71	-108	-114	-105	-95	-93	967 49151 2	2	3	5	3	1	-2	1	1	2	-1	-2	-2	-1	1	967 40957 2	-1	1	1	3	1	-2	-3	-1	3	2	3	-2	969 30463 1	3	2	-1	-1	4	1	1	-1	-1	1	1	1	968 64379 -1	-1	-1	3	1	-2	-3	-1	1	2	2	1	1	967 63083 4	3	1	-2	2	3	-2	-1	1	-1	-5	965 57295 -2	-1	-2	-3	-4	-3	-2	2	1	1	4	7	8	981 60159 -6	-9	-6	-1	-1	2	7	3	5	3	4	6	8	986 46047 2	3	-1	1	1	-1	-1	1	4	3	-1	-4	983 65463 1	3	2	2	1	-1	1	1	1	-2	-3	2	3	-1	980 62462 -2	-1	-2	1	1	-1	3	2	3	2	1	-1	1	978 55271 3	2	-1	2	3	1	-1	-2	2	2	-2	-4	978 38907 -2	-2	-1	-2	2	4	4	1	1	-1	-1	-2	982 65535 -7	-8	-6	-2	-1	-2	-2	-4	-1	2	3	5	6	5	5	10	995 57119 -2	-2	-2	2	4	5	4	2	2	-1	-2	-1	992 64511 3	1	-2	-3	-1	4	8	11	10	4	-3	-4	-4	-4	-8	972 65407 7	3	1	3	2	-1	-4	-3	3	3	1	-3	-5	-1	-1	964 65471 9	9	5	3	3	4	7	2	1	3	2	-1	-8	-14	-18	1050 65535 -107	-119	-121	-118	-101	-80	-53	-14	34	87	126	152	151	124	62	-8	958 63871 25	-6	-18	-15	-6	-2	3	8	5	5	2	6	8	961 60169 2	1	2	-2	1	1	2	-1	960 57326 1	1	-1	-2	-3	-2	-1	2	2	2	3	2	1	959 32767 -3	-1	1	1	2	2	1	4	1	1	-1	-1	-2	1	5	961 40927 3	1	2	4	3	3	1	-1	-1	-2	-1	-3	-4	955 65023 5	6	6	3	2	-1	1	1	1	1	-3	-4	-1	-1	-3	958 65471 -9	-7	-8	-7	-4	-4	-2	-2	-1	5	6	8	11	11	14	978 65471 -7	-5	-5	-3	1	4	4	2	1	3	3	5	2	4	1	980 30204 2	2	1	-3	3	3	1	-1	-2	-1	1	976 57087 5	2	3	3	2	3	2	1	-1	-3	-3	-4	-4	-2	972 65515 4	3	2	1	3	7	3	-1	-2	-5	-3	1	2	-1	972 49087 -1	3	2	1	-4	-1	1	2	-1	-1	1	2	1	-1	972 65406 -3	-4	1	2	3	2	1	-3	3	5	2	-1	-1	1	982 65535 -9	-9	-6	-7	-4	-2	2	1	-1	2	2	7	10	10	9	8	990 64379 2	6	5	4	1	-1	1	-1	-2	-7	-4	2	5	974 65535 21	13	9	8	6	2	-3	-6	-5	-3	-6	-6	-6	-6	-5	-4	967 63447 2	1	-2	-1	2	2	1	2	-2	1	2	-3	-4	1010 65535 -51	-57	-60	-66	-74	-84	-86	-75	-54	-28	-4	33	84	138	182	211	1003 65535 221	193	131	60	2	-37	-56	-65	-68	-65	-62	-58	-49	-47	-46	-44	960 30716 1	-1	-1	1	2	1	-1	-3	1	3	3	1	962 47063 -2	-2	2	-2	-2	1	1	-1	-1	3	2	3	962 65022 1	-2	1	2	2	2	-2	2	1	4	3	1	-4	-1	962 48095 3	-1	-2	2	2	3	-1	-2	1	1	2	2	1	960 64511 4	3	4	4	4	-1	1	3	2	-3	-6	-5	1	-3	-2	954 63291 1	-1	1	1	2	-1	-3	2	1	2	3	7	974 65535 -12	-8	-9	-8	-6	-1	2	3	1	2	5	6	8	8	9	8	984 64767 -2	1	3	2	1	-4	3	2	-1	-1	-1	-1	1	1	982 65278 2	1	2	2	4	1	1	2	2	3	1	-2	-2	-2	979 64895 3	3	2	-1	1	2	1	-2	1	1	3	-1	-4	-4	977 24091 2	1	-2	-4	-2	-2	-1	2	-1	976 32111 -1	1	1	1	1	-1	1	3	-2	-3	-2	1	978 61437 2	1	-2	1	1	2	-1	-1	-3	-1	1	1	2	-1	991 65535 -11	-9	-5	-5	-3	-4	1	3	3	4	3	2	6	9	10	10	997 49151 4	1	1	2	-2	-1	-2	-1	-1	-1	1	4	5	4	1	982 65535 13	11	8	4	4	4	5	1	-2	-5	-5	-3	-6	-5	-5	-5	975 63871 2	3	3	1	-1	2	1	1	-2	-2	-1	1	-1	991 65535 -18	-23	-26	-31	-39	-42	-48	-58	-62	-50	-27	1	34	74	131	187	1032 65535 189	201	183	121	36	-37	-77	-85	-77	-68	-64	-60	-63	-62	-62	-64	966 59343 3	3	4	-1	-1	-1	2	2	-1	1	-1	2	968 57342 -2	-2	2	3	1	1	-1	-1	2	1	1	-1	-1	2	967 46975 1	1	-2	2	2	1	-1	-1	1	2	2	2	-1	969 22519 2	2	-3	-1	2	1	1	-1	-1	1	2	1	967 16255 2	1	2	1	2	-1	3	1	1	1	-1	-1	1	967 49151 1	-1	-1	-1	-1	-1	-2	-2	-1	-2	2	5	5	2	4	983 65535 -10	-7	-6	-4	-2	-3	-1	2	2	3	6	3	4	7	10	7	988 65398 1	-3	2	4	2	3	-1	-3	2	3	3	-2	-2	986 59207 4	3	1	1	2	-1	-2	-1	-2	-3	983 65466 1	1	1	2	1	-2	-1	1	3	-1	-1	-2	1	979 57085 1	-1	3	2	4	1	-1	-1	2	1	1	-1	1	978 57215 1	2	-4	-1	1	4	1	-1	1	1	2	1	2	-1	981 48863 -3	-1	-2	-1	-3	-3	-1	-1	-1	2	6	9	12	997 65019 -5	-5	-5	-3	-1	1	2	3	4	6	4	3	-2	-1	993 65535 3	3	2	1	-1	1	5	11	9	3	-1	-3	-4	-4	-9	-12	975 65469 4	4	6	5	3	-1	-1	-1	-1	-2	-2	-2	-1	-2	968 65535 3	1	4	4	5	6	2	1	3	3	4	2	-2	-4	-6	-13	1037 65535 -86	-91	-99	-108	-112	-103	-83	-58	-32	-1	45	98	143	170	172	149	979 65535 150	83	18	-20	-37	-33	-22	-15	-14	-14	-15	-16	-15	-13	-14	-14	964 55677 1	-2	3	3	-1	1	2	3	1	1	1	963 49151 3	-1	-3	-2	3	2	1	1	-1	1	3	5	3	1	-1	964 32511 2	2	4	2	-4	-1	1	-1	-2	-2	-1	-2	2	1	965 56305 1	-1	1	2	-1	-1	1	2	3	2	2	965 64487 3	2	2	-1	3	2	1	1	-2	-2	-1	-1	-3	965 57271 -2	1	-1	-1	-3	-5	-1	-3	-2	-1	5	7	7	978 61435 -5	-7	-4	1	2	-1	-3	-1	2	3	4	4	3	4	977 65469 2	2	-1	-2	2	1	4	2	3	1	-1	2	2	-2	974 62911 3	4	3	3	-4	2	1	-1	-3	-1	-1	-1	1	969 61407 5	1	2	4	2	2	-1	-2	-1	-1	-2	-2	1	1	967 58351 4	3	2	-1	-1	-1	-4	-2	2	2	1	-1	967 48951 -2	3	1	-2	-1	-2	-1	1	-3	2	3	2	973 65407 -6	-5	-6	-3	-1	-2	-4	-4	5	6	7	6	4	7	9	984 65367 1	2	2	-1	1	4	3	3	-2	3	-2	-2	-1	969 65535 17	18	12	6	2	-2	-6	-4	-3	-3	-5	-7	-5	-5	-4	-5	959 65519 3	1	3	5	4	6	1	-1	-4	-4	2	-3	-2	-2	-2	972 65535 -12	-12	-16	-27	-33	-35	-40	-51	-57	-53	-29	-2	27	66	118	167	1007 65535 170	187	169	109	34	-27	-61	-76	-72	-64	-63	-62	-63	-59	-57	-58	951 65149 -3	-2	1	1	4	-1	-1	2	4	2	3	-1	1	948 64427 3	2	-1	-1	-1	1	3	1	1	-1	1	1	950 61183 2	3	3	-3	-3	-3	3	2	2	-1	1	2	3	3	949 64879 3	1	2	1	3	2	2	1	1	-2	-3	-1	1	942 65535 8	5	3	2	3	2	5	4	1	-2	-3	-4	-2	-3	-4	-7	948 65407 -9	-4	-5	-5	-8	-11	-7	-1	1	2	4	9	12	14	15	964 65535 -2	-3	-1	1	1	2	2	1	2	3	4	3	-2	-1	1	1	966 48887 -1	2	-1	2	2	4	-3	1	1	2	1	-2	-1	963 65526 2	2	2	1	-3	-2	-1	1	4	3	-2	-3	2	3	959 24309 -1	4	3	3	1	-2	1	2	3	-1	1	960 57309 1	1	-2	-1	1	1	2	-2	-1	1	1	-1	-1	962 65023 -3	2	1	-1	-3	-2	1	3	2	-1	-1	-1	1	1	2	974 62463 -10	-11	-5	-2	-2	-4	-1	4	6	8	5	2	5	7	975 65503 6	3	1	3	2	4	4	2	-3	-3	5	5	1	-7	-10	957 65533 6	5	3	3	-2	-2	-1	3	2	1	1	-1	-2	-1	-2	950 65535 6	4	5	7	8	5	5	3	3	5	5	4	-1	-8	-16	-20	1037 65535 -109	-117	-124	-119	-95	-66	-31	11	61	112	153	169	149	88	1	-69	945 65535 -11	-15	-8	1	4	3	4	4	5	6	4	2	1	4	4	5	949 56319 -2	-3	-1	2	-2	-4	-2	2	5	2	4	1	2	3	949 61790 3	3	1	-1	3	-2	2	1	3	1	949 65239 -1	-1	1	1	1	-1	-1	1	1	-2	1	3	2	946 49023 4	2	4	4	1	1	-3	1	1	1	-2	-4	-4	-2	943 64223 -1	1	-2	-3	-2	1	-1	-4	1	4	5	4	7	965 65535 -11	-8	-5	-4	-3	-6	-2	2	1	5	5	3	6	8	10	8	971 24446 -1	3	3	3	1	-1	1	1	-1	-3	-3	-2	970 61435 2	1	-1	1	2	1	2	-1	-2	-1	2	1	-2	-4	965 65268 2	3	4	3	2	-2	-1	3	1	-1	-2	1	964 56695 2	-3	2	2	1	-2	1	1	2	1	3	1	967 14447 -3	-3	-2	-3	-1	2	-2	-1	-4	973 65535 -7	-6	-7	-5	-10	-11	-4	1	4	6	6	4	6	8	12	12	983 32767 2	3	4	3	4	-1	-3	-1	-2	-1	-2	-3	-5	-1	5	975 65023 18	20	15	9	3	3	2	-3	-6	-7	-7	-5	-8	-9	-14	960 64445 3	3	2	4	2	1	-1	2	-2	-4	-1	-1	-1	976 65535 -18	-20	-20	-26	-34	-39	-45	-50	-58	-52	-36	-5	27	69	123	184	1018 65535 186	204	186	120	28	-46	-81	-82	-72	-64	-62	-64	-62	-63	-62	-65	952 32639 2	2	3	-1	-2	-1	-2	-1	-1	-3	-1	4	1	1	952 24061 -3	1	4	2	-1	-1	1	4	3	2	-1	3	953 64107 2	2	1	-2	1	3	-2	-1	2	-2	-3	953 65514 -3	-3	2	2	-3	-3	-1	3	4	2	3	2	1	952 32503 -1	1	2	4	4	2	2	2	1	-1	-2	-1	1	962 65151 -9	-5	-8	-8	-6	-5	-1	2	4	6	9	9	9	8	974 42171 -1	1	-1	2	-2	-1	-3	4	3	971 56958 4	1	3	4	3	1	-1	1	-1	-2	-5	-2	968 65251 4	5	2	-1	-2	2	2	1	-2	-2	-1	-6	963 62687 1	2	5	4	-2	2	4	-3	-3	1	1	1	964 65407 -1	-3	-2	1	5	2	1	-2	1	2	2	1	-2	3	2	966 32735 1	-1	-3	-4	-2	2	1	-1	-2	-2	3	4	5	6	983 53247 -11	-6	-2	-6	-2	2	4	6	5	5	3	6	6	3	982 48639 3	3	4	4	3	-1	3	8	7	1	-4	-7	-7	-7	963 64755 9	8	4	2	2	2	-2	-2	-3	-2	-2	-3	958 65511 3	3	7	3	4	1	1	3	5	5	3	-2	-7	-19	1034 65535 -100	-104	-112	-117	-108	-90	-64	-33	9	64	119	156	165	142	83	5	952 65518 22	-11	-16	-10	-1	4	4	2	3	-1	1	4	6	3	954 65279 -2	1	1	-2	-1	-4	-1	3	3	1	-1	2	2	5	3	954 65525 -1	-2	-2	1	1	3	1	-2	1	3	3	4	-3	1	955 56895 4	2	-4	-2	-2	-1	2	3	5	3	4	1	956 65469 2	2	4	3	-1	-1	-1	-1	3	1	-1	1	1	3	954 49078 2	-1	1	3	3	1	-1	-1	3	1	-4	-2	963 65407 -6	-5	-7	-8	-5	-3	-1	1	2	4	6	6	9	8	5	972 47607 -2	2	1	1	2	4	1	1	-2	1	1	3	971 40575 3	4	2	2	2	1	1	2	-1	-3	-4	-1	967 64983 6	5	2	-2	-2	1	3	-1	-1	-1	-1	-4	-5	963 65263 3	3	2	1	-2	-3	-2	2	3	1	-1	3	3	2	963 65533 -1	-3	-3	-2	-1	2	2	-1	-1	1	2	4	3	-1	1	966 65503 2	-2	-4	-6	-5	-3	-2	-4	-2	-3	1	6	7	8	7	981 65534 -6	-5	-3	-1	-2	-1	1	3	5	4	2	-3	1	3	2	977 65535 4	2	2	2	5	5	7	7	3	3	1	-1	-4	-7	-9	-9	960 60793 7	4	2	2	1	2	-2	-2	-1	1	-3	955 32755 2	5	2	2	-1	1	3	4	1	3	-2	-4	-9	1023 65535 -84	-88	-96	-105	-108	-101	-85	-61	-35	-2	43	93	138	166	178	158	968 65535 159	90	25	-14	-31	-35	-29	-22	-20	-17	-18	-18	-14	-15	-18	-19	950 64955 -3	1	1	1	-1	1	2	2	-1	-2	1	5	4	951 61279 2	-1	-1	1	1	2	1	2	-1	-2	-1	-1	2	950 61935 5	2	1	-1	-1	-1	-2	-1	2	1	-1	-2	952 61435 -1	1	1	-1	-3	-1	-1	2	3	2	-2	-2	3	4	948 65471 6	2	4	5	5	4	2	-2	-1	1	-1	-6	-7	-5	-4	942 65535 2	3	2	-2	-2	-1	-2	-2	-4	-5	-1	1	4	7	5	7	963 65023 -12	-8	-6	-4	-4	-3	3	5	4	4	5	4	7	9	8	970 32630 -2	-2	1	1	1	3	-1	1	3	1	-2	-3	968 65517 4	3	1	-1	1	2	2	3	1	-3	-2	2	1	-4	965 64250 1	3	2	2	2	-1	1	1	-1	-2	-2	-2	963 32253 -1	-3	1	2	1	-1	-1	1	1	2	1	-1	1	963 56301 1	2	-2	-1	1	4	2	-2	1	2	2	-1	968 57343 -4	-3	-2	-2	-5	-3	-4	-1	1	1	2	3	9	11	10	981 64506 -4	-6	-5	-3	2	3	3	6	5	6	4	3	-1	978 65535 7	7	3	2	1	7	12	11	6	-1	-4	-4	-6	-8	-13	-15	961 65398 3	5	6	5	1	-3	-1	-1	1	-3	-2	-1	2	955 49151 4	2	3	7	5	2	2	1	3	5	5	2	-5	-12	-19	1044 65535 -107	-114	-124	-129	-120	-97	-67	-38	-3	43	97	138	161	165	134	68	954 65533 79	17	-12	-24	-19	-13	-5	-1	-1	-1	-2	-3	-3	-2	1	950 63829 2	-2	-2	-1	2	-3	1	3	-2	2	951 57309 3	3	-1	-1	2	1	2	-1	-2	1	1	3	-2	952 57326 -1	1	1	-1	-2	-1	1	3	4	1	-3	-1	3	952 61433 -1	-1	-1	1	1	3	-1	2	1	3	4	2	2	949 65523 6	5	4	2	1	2	3	3	-1	-3	-6	-2	-2	-3	951 65311 -5	-4	-1	-3	-4	-4	-3	-1	3	4	7	11	13	972 62847 -8	-9	-6	-3	1	-4	3	5	6	5	3	4	7	977 65501 1	2	1	-1	-1	1	2	1	-1	-2	1	2	1	-4	975 49150 -3	1	2	1	-1	1	2	3	2	-2	-3	-3	-1	1	971 40423 3	3	5	1	-3	-1	-1	2	-5	-3	-1	968 65263 3	3	2	1	2	3	1	-1	-1	-3	1	4	1	-2	969 63175 -3	-1	1	2	-3	-2	1	-1	1	4	4	976 65535 -3	-7	-9	-5	-2	-4	-4	-5	1	4	8	7	8	5	8	8	989 65459 -2	1	2	4	2	4	5	3	3	-1	-1	-1	-4	980 65535 6	6	8	11	15	12	9	6	1	-2	-5	-9	-11	-12	-10	-12	964 65519 1	2	1	1	2	2	1	-2	-1	1	2	-1	-2	-1	2	950 65535 17	14	12	10	9	6	1	-7	-14	-18	-25	-30	-23	-7	17	44	1060 65535 -34	5	62	113	149	162	154	111	37	-43	-100	-123	-127	-124	-119	-116	955 48383 -6	1	4	4	-1	2	3	4	3	1	-1	-1	2	957 15964 -3	-5	-2	-2	-3	-3	1	3	2	957 12287 1	1	-2	-1	1	3	1	2	-2	-1	1	2	2	959 31743 -3	-1	1	1	-2	-3	-1	1	3	2	1	-1	1	1	958 63333 2	4	1	2	3	4	4	-3	-3	1	-1	957 65275 2	1	4	2	2	-3	-2	4	1	2	-2	-2	1	1	967 65535 -10	-11	-12	-6	-2	-2	-1	-1	2	4	4	8	7	5	7	9	977 63487 2	1	1	-1	2	3	3	2	-2	-1	1	1	3	1	-1	976 64959 1	3	2	4	1	-1	1	1	-2	-2	-2	-1	-1	-1	971 40766 2	4	5	3	2	-1	2	-1	-1	-4	-2	968 60030 4	3	1	-2	2	-2	-3	2	3	1	2	968 32471 1	1	-2	-2	-5	-2	2	2	1	1	4	3	971 63675 -4	-3	-3	1	1	-3	1	-1	-1	6	10	988 65534 -3	-4	-5	-6	-2	1	2	3	2	2	5	5	5	1	1	985 64495 2	5	4	6	4	-2	1	9	11	7	-5	-6	-9	-13	966 65359 3	1	1	2	3	4	3	1	1	-4	-4	-3	-1	956 65535 11	12	9	6	4	7	10	9	5	4	1	-5	-6	-14	-19	-24	1041 65535 -118	-120	-109	-88	-60	-26	23	81	129	158	159	123	50	-26	-77	-97	955 65535 -15	-10	-3	2	4	4	6	3	2	3	3	4	2	-1	1	1	955 55119 3	4	-1	2	4	2	-3	3	2	1	-2	955 49084 1	3	3	1	-1	-2	-1	2	-1	-3	-2	1	955 27710 -3	-1	3	3	4	3	1	-3	-1	954 63487 4	4	3	1	2	3	1	-2	-4	-2	-2	4	1	-3	-4	951 52764 1	-1	-3	-3	-3	-2	-4	-4	961 65535 -11	-11	-9	-5	-1	1	2	1	4	3	4	8	8	6	5	9	969 56815 3	3	-1	-2	2	1	1	-2	-3	3	2	2	-2	966 65532 2	3	3	3	1	-3	-1	2	1	3	1	-3	-2	-2	962 49151 4	-1	3	4	4	1	-2	-1	1	1	-1	-2	-4	-2	-2	957 64509 5	3	3	-1	-1	2	4	1	-2	-3	-1	2	3	-1	957 65471 1	2	4	3	3	-1	-1	1	-1	-3	-5	-2	-1	1	2	962 65535 -4	-6	-7	-5	-3	-2	-6	-3	1	4	8	7	6	5	6	11	974 65351 3	1	3	1	2	2	2	1	-2	-4	-4	-3	960 65535 16	17	16	11	4	-1	-2	-5	-3	-3	-9	-12	-8	-7	-5	-7	950 65407 2	-1	2	2	4	3	1	-1	2	4	2	-3	-6	-2	1	959 65535 -6	-5	-11	-18	-25	-30	-30	-36	-47	-51	-37	-11	18	53	98	149	1012 65535 147	179	183	148	75	-2	-55	-81	-87	-83	-75	-70	-69	-69	-68	-71	941 48638 2	2	3	4	4	-2	-2	-2	1	2	-1	-1	-1	940 55291 4	1	1	1	3	1	-1	-3	-1	-2	1	-2	-2	939 15855 2	1	-1	-2	2	3	3	2	1	1	1	2	941 56314 -1	-1	1	1	1	-1	-1	2	3	4	1	-3	933 61311 6	5	2	1	4	4	2	-3	-3	-2	-2	-2	-2	-5	933 65535 -4	-3	-1	-1	-2	-5	-6	-1	1	2	3	2	4	4	9	11	956 65535 -9	-10	-7	-4	-3	1	3	1	2	4	5	7	5	2	4	5	962 32495 3	-1	-3	1	-1	1	3	-2	-2	3	3	1	-3	958 65406 2	4	5	2	3	-1	1	-1	2	2	-1	-1	-4	-3	955 49151 2	2	2	2	2	3	-2	-2	1	2	1	-1	-2	-2	-1	954 55039 2	2	-2	1	2	-2	-3	-1	1	4	4	2	-2	955 63231 -2	1	2	1	-1	-3	2	4	3	-1	-1	1	1	2	963 65535 -7	-10	-8	-6	-6	-2	-2	-1	2	5	6	7	6	7	7	12	974 65407 5	5	4	2	1	3	2	2	-2	-3	-1	-1	-3	-4	-3	964 65279 10	15	20	16	9	3	-1	-2	-6	-9	-10	-13	-11	-10	-10	951 64884 1	-1	-2	2	3	3	-1	1	3	2	-3	986 65535 -35	-37	-47	-57	-61	-68	-74	-77	-65	-42	-9	25	65	117	170	207	1046 65535 170	191	202	193	149	68	-21	-91	-120	-120	-109	-100	-99	-102	-102	-99	943 65327 3	-1	1	1	2	3	1	-1	1	-1	-4	-3	-2	943 63439 1	2	1	-2	1	5	1	3	-1	2	2	2	-3	943 48858 -2	4	4	2	1	-2	3	3	-3	-2	3	944 27854 -2	-1	2	2	-2	-1	-1	-3	-2	941 62335 4	4	1	-1	1	1	-2	-1	-1	1	1	1	-2	947 65407 -7	-7	-5	-4	-5	-5	-4	-3	1	3	5	7	9	13	15	963 65407 -3	-2	-3	1	1	2	1	-2	4	3	3	1	-2	-1	2	962 65535 4	4	3	-1	2	3	2	1	1	-1	-1	-1	-1	1	-2	-2	958 32767 2	5	3	2	-1	-2	-1	3	2	2	-4	-4	-2	-2	-1	955 40950 2	2	4	2	-1	-1	-2	1	3	2	-2	-1	954 59385 3	2	2	1	2	2	-1	-2	-1	1	3	-1	956 57327 -4	-2	-1	-1	-3	-1	2	3	2	1	-1	2	4	5	971 65535 -12	-9	-8	-1	-3	2	-1	-2	-1	3	5	7	8	4	6	5	974 65501 5	4	1	-2	-2	-2	1	-1	-3	-5	6	10	4	-7	958 65023 10	9	10	8	2	-2	-3	-1	-2	-6	-8	-5	-4	-4	-4	948 57015 2	2	4	5	4	2	1	2	3	-1	-4	-9	1017 65535 -84	-89	-94	-101	-110	-111	-93	-65	-39	-9	36	96	145	178	186	154	955 65535 150	66	-1	-31	-34	-25	-16	-12	-9	-10	-10	-12	-11	-11	-11	-12	942 61431 1	-1	2	3	2	1	-2	-1	1	3	2	-2	-2	3	943 63455 2	3	-1	-2	1	2	3	1	-2	2	1	2	1	-2	944 59375 -2	-1	2	-1	-2	1	1	2	2	-1	3	1	3	945 64827 -1	-2	-1	1	1	2	-2	3	2	3	-2	1	944 55199 3	3	-1	1	4	4	1	-1	-1	-2	-3	-4	954 65503 -12	-8	-7	-3	-4	-5	-2	-3	-2	4	2	6	11	13	13	965 65278 -2	-3	-1	-2	3	3	3	1	2	2	1	1	-3	-3	963 65483 2	1	1	-1	1	2	2	2	3	-3	-1	-3	-4	959 65535 1	2	4	4	4	2	-1	2	3	3	-5	-4	-5	-3	-2	-2	956 64639 -1	-3	-2	1	1	2	4	2	1	1	-2	-1	-2	954 64478 1	2	-1	-3	-1	2	2	1	1	2	2	3	2	956 65111 -3	-1	-2	1	-2	-2	-2	1	-1	4	7	10	972 65535 -8	-8	-6	-6	-3	-4	-2	-2	2	6	7	9	6	5	3	5	973 57855 2	3	1	-2	-5	-5	-4	2	5	6	5	-2	955 65533 14	13	10	6	2	-4	-4	-5	-3	-2	-3	-5	-3	-1	-2	949 65279 2	1	1	4	5	5	2	2	3	4	4	1	-5	-10	-15	1021 65535 -93	-96	-103	-114	-114	-102	-78	-54	-27	8	62	115	154	170	158	118	953 65535 119	52	2	-21	-28	-26	-17	-11	-8	-9	-8	-9	-7	-5	-6	-6	942 65191 2	2	2	3	1	3	-2	-1	1	-1	2	3	943 60271 4	4	2	-2	2	3	-2	-2	2	1	-2	-3	943 63467 -4	-3	1	1	-2	-4	-2	4	4	2	1	1	3	944 28432 -2	-2	2	5	1	1	-1	939 61419 6	5	3	-2	1	3	2	-1	-2	-1	-1	-4	-4	942 65343 -6	-7	-2	-5	-6	-8	-6	-1	3	1	7	10	13	15	960 65531 -2	-4	-3	2	2	3	1	-3	-3	-1	1	1	2	1	3	960 64109 5	5	2	-2	3	2	-2	1	2	-1	-3	958 65532 -1	2	3	3	2	1	-3	-1	-1	2	2	1	1	2	954 65167 1	1	2	3	5	4	3	2	-4	-5	-5	-3	954 64509 1	2	1	-1	-1	4	4	1	-3	-4	-1	1	2	-1	954 65535 -2	-1	1	1	-1	-2	-1	1	1	1	2	-2	-2	1	5	4	965 65535 -8	-11	-9	-6	-3	-1	-1	-1	-1	1	4	7	6	7	9	10	974 61423 2	4	3	3	2	2	1	1	-1	-1	-2	-3	-4	-2	962 65279 14	16	14	11	7	2	1	-1	-5	-7	-9	-11	-8	-10	-8	950 57207 1	-1	3	1	1	1	-1	2	4	2	-3	1	2	947 65535 7	7	2	-3	-8	-13	-19	-21	-28	-35	-34	-20	3	27	54	88	1054 65535 30	82	122	152	162	143	98	37	-22	-67	-96	-116	-132	-133	-129	-123	945 65535 -9	-3	-2	-1	1	1	2	2	1	1	5	3	2	1	1	3	946 56285 1	2	-1	-1	1	2	2	-2	3	1	1	-1	947 65523 -1	1	1	2	1	-2	1	2	3	2	1	-2	2	1	947 65020 1	-2	-1	-1	1	1	-1	2	3	3	4	1	-2	946 61419 1	3	2	3	3	3	3	3	-4	-2	1	-1	-5	940 65535 1	1	2	2	-1	-1	-2	-1	-1	-1	-1	-3	-2	-2	4	5	955 65407 -14	-13	-10	-7	-4	-1	-1	-2	6	9	9	8	7	8	9	967 65455 1	1	-2	-1	-1	-1	3	4	2	1	2	3	2	1	968 32458 3	4	3	1	-1	-2	2	3	-1	2	963 65519 3	2	3	4	6	4	4	-1	-1	1	2	-3	-5	-5	-1	961 53229 2	4	-1	1	3	2	3	-2	-1	-1	2	-2	960 64991 -1	2	3	3	-1	-3	1	4	3	-1	-1	2	1	2	961 61439 -3	-4	-4	3	3	2	3	1	2	4	3	3	-1	1	2	970 65279 -4	-7	-7	-8	-7	-5	-2	1	3	4	6	7	8	8	8	982 48380 -1	5	5	3	2	1	1	-3	-4	-1	-2	972 65535 10	12	15	15	11	4	2	-3	-5	-4	-6	-6	-9	-12	-12	-10	956 62333 5	5	2	1	2	1	-2	-1	-1	2	2	-1	929 65151 25	27	28	26	19	10	4	-6	-15	-27	-28	-26	-17	-8	1058 65535 -125	-107	-84	-56	-23	24	77	121	148	157	135	75	-7	-80	-120	-129	949 55096 -11	-1	1	1	3	2	-2	1	3	949 61181 -2	1	1	1	-2	-1	3	4	-2	-2	-1	1	-1	950 65403 -1	-1	-1	-2	1	2	-1	-2	-1	2	2	3	-1	3	951 65519 2	4	1	-1	-2	-1	-3	1	-1	-3	-2	2	3	1	-1	951 49143 -1	4	2	1	-1	2	1	3	1	-1	-1	1	1	-1	949 65343 2	-2	1	2	2	4	1	2	1	1	1	-1	-2	1	956 65023 -4	-5	-6	-7	-4	-4	1	2	-1	2	6	7	10	9	7	971 55263 -6	-3	1	-2	-1	2	5	4	-4	-1	1	2	2	969 65231 2	-1	-2	-1	4	4	1	2	1	-1	-1	-2	-1	965 59391 5	6	3	3	2	1	-2	-5	-2	-1	1	-1	-2	-2	961 61951 3	3	5	1	1	2	1	-1	-1	-2	-1	1	1	960 65470 1	1	-2	-1	1	3	1	-1	-2	3	2	1	-2	-1	959 61438 2	3	2	-1	2	4	1	-1	1	1	-3	1	2	1	972 65535 -11	-11	-8	-4	-3	-3	-4	3	5	4	2	4	5	9	11	13	978 65503 6	4	4	3	5	5	1	-2	-3	-3	1	2	-1	-4	-4	969 65535 8	13	17	16	11	7	6	2	-3	-9	-11	-8	-8	-10	-13	-14	956 16121 4	2	1	1	-1	2	2	-1	-2	-4	1	951 57343 4	2	-3	-8	-15	-21	-25	-34	-40	-37	-21	3	28	59	108	1031 65535 84	129	159	165	140	85	17	-48	-92	-105	-101	-93	-83	-83	-84	-85	946 65499 -3	3	3	3	2	1	-1	-1	1	1	-2	-1	1	2	945 28659 -2	-2	2	1	1	1	1	1	2	1	-1	2	945 58991 4	3	2	-1	2	-1	-1	2	1	1	1	946 48735 -2	1	1	-1	-2	-2	1	-1	1	4	3	3	945 49151 1	2	2	4	4	2	-2	-3	-1	4	1	1	-1	-3	-5	941 63103 2	1	2	-2	3	2	-2	-2	-2	2	1	-2	-1	952 65535 -12	-7	-6	-4	-3	-3	-3	1	4	4	4	2	3	5	10	8	958 65150 2	1	2	3	3	4	2	2	3	2	-2	-4	-3	955 59375 4	4	2	1	4	3	1	1	-2	-2	-2	-4	-5	951 65450 1	3	4	-1	-2	-3	-2	1	3	2	-2	2	948 64505 2	-1	-1	2	1	-2	-3	-2	2	4	5	-1	2	949 65470 3	2	1	-1	-5	-4	-4	-4	-2	2	3	4	4	2	960 65279 -12	-9	-6	-8	-4	-4	-3	5	5	5	4	6	7	10	10	968 65279 5	4	1	3	3	2	-1	-3	-2	-2	-5	-4	-2	2	4	954 65535 26	23	20	12	7	5	3	-4	-7	-9	-11	-11	-10	-10	-8	-11	941 32159 5	4	2	1	-1	2	4	-3	-3	-1	1	-2	995 65535 -62	-68	-72	-71	-77	-89	-92	-78	-56	-24	12	54	107	152	183	193	959 65535 197	122	40	-17	-43	-45	-37	-28	-26	-24	-24	-22	-19	-19	-20	-23	934 15099 3	2	2	-2	3	2	3	-1	-4	1	2	934 53247 2	1	2	2	2	2	-1	1	2	3	1	-1	-3	-1	935 63149 1	-1	-1	-2	1	2	1	-1	2	1	-3	935 65503 -1	1	3	3	1	-1	-1	2	1	1	-3	-4	-3	2	1	930 64767 5	2	2	2	4	2	-2	1	3	-1	-2	-1	-5	-5	932 65439 -3	-5	-6	-7	-9	-5	-5	-3	-2	3	9	10	11	13	955 63487 -11	-7	-4	-1	-2	2	2	5	4	5	1	3	6	7	4	957 56807 2	2	1	4	1	-2	-2	1	2	-2	-1	-1	953 61421 6	4	3	-2	-1	1	1	1	-1	-2	1	1	-2	952 29631 3	5	2	-3	-1	1	-1	-1	-1	-3	2	1	950 32764 -2	-1	2	4	2	1	1	-1	1	3	3	1	-1	952 16303 1	-2	-2	-1	1	2	1	-2	4	2	4	5	969 65535 -8	-6	-2	-1	-2	-4	-2	2	4	6	5	5	4	4	5	4	970 65467 2	-1	-4	2	5	5	2	-2	-5	7	10	7	-7	-7	950 65391 12	9	4	-1	-2	1	1	1	-3	-3	1	1	-2	-4	935 65535 12	12	12	13	11	11	10	8	11	9	-1	-8	-14	-17	-25	-29	1041 65535 -129	-110	-78	-42	4	60	118	156	174	160	107	19	-61	-111	-128	-125	938 57343 -14	-6	4	2	2	5	5	2	1	1	1	4	4	1	1	940 65535 -4	-2	1	1	1	-3	-1	-1	2	1	1	-1	-1	1	3	2	942 65019 -2	-1	-4	-1	1	2	-1	-2	1	3	3	1	-1	2	943 65513 1	3	-1	-1	-2	1	3	1	1	-2	-2	1	-1	942 65485 -2	1	3	3	5	2	-2	2	2	2	-3	-1	1	938 49143 1	-2	-1	2	-1	-2	-5	-3	-2	1	2	1	4	6	957 65503 -9	-9	-8	-5	-5	-1	2	4	1	2	6	8	8	6	5	963 64253 -2	1	3	3	1	-1	2	3	-1	-1	-1	-1	-1	961 65464 4	2	-1	1	2	3	-1	-2	-2	1	5	1	959 64511 4	4	2	-4	-2	3	3	2	-2	-1	1	1	1	-2	-1	957 64719 -1	-1	3	2	1	1	2	3	-2	1	3	3	958 26339 -2	-3	2	1	-2	1	3	-1	1	964 65535 -3	-3	-4	-6	-7	-4	-3	-1	-2	-1	-1	4	9	11	11	10	982 55287 -9	-5	-1	-1	-1	1	4	5	4	2	-1	2	2	976 65535 3	4	2	4	2	4	6	9	9	7	2	-3	-7	-12	-15	-14	957 61431 3	2	2	1	2	4	1	-2	-2	-3	1	-1	-2	-3	942 65535 12	13	14	13	12	9	4	-2	-7	-10	-15	-26	-32	-21	5	32	1053 65535 -48	-11	43	97	136	160	163	128	60	-18	-78	-116	-134	-132	-127	-117	949 65518 -3	1	-1	-2	-3	2	3	3	1	-1	-2	3	3	2	950 48627 -5	3	-2	1	-3	3	2	3	1	1	2	3	952 49142 1	-4	-1	1	1	1	-1	-1	-1	2	3	1	-2	952 53055 1	1	-1	1	2	2	-2	1	4	2	1	1	952 29151 3	2	1	-1	2	1	-2	-2	-2	1	1	951 43441 2	-1	2	1	-2	3	3	2	966 65023 -10	-6	-8	-7	-6	-2	2	2	3	1	5	7	6	9	8	973 64506 -1	1	4	3	2	-1	2	3	2	-1	-2	-3	1	970 56575 3	2	1	3	2	1	1	3	4	1	-1	-4	-1	966 59371 4	6	2	1	1	3	-1	-1	-2	1	-2	-6	963 65503 -3	2	4	3	1	-2	-3	-1	-2	1	-2	-1	2	1	1	963 32383 -2	-3	2	3	3	1	2	4	1	1	-1	-1	2	964 53246 1	1	-1	1	3	3	3	-1	-2	-1	1	2	1	979 65471 -15	-14	-10	-7	-5	-5	-2	1	2	2	5	7	10	17	16	991 57343 5	2	3	4	2	2	-2	-4	-2	-1	-3	-2	3	3	1	973 65535 15	11	8	4	-1	-2	-1	-1	-3	-7	-5	-3	-2	-2	-5	-6	964 65531 2	4	5	4	1	-2	-3	-1	-2	-1	1	2	-1	3	1	987 65535 -22	-25	-32	-38	-44	-49	-59	-69	-68	-50	-23	5	40	91	150	194	1006 65535 197	189	142	65	-12	-58	-65	-62	-52	-49	-49	-49	-47	-46	-46	-47	958 62975 -2	3	3	3	-2	2	2	1	-1	-2	-5	-1	2	2	957 61311 2	-1	-2	1	1	2	1	2	4	3	3	1	-3	-1	958 59359 1	4	3	2	3	3	-1	-1	-1	2	1	-1	-3	957 44927 -2	1	-1	-2	-4	-2	1	2	3	3	3	5	6	954 65535 6	3	2	3	3	4	-1	1	-1	1	1	-2	-4	-4	-6	-5	956 65535 -6	-4	-5	-3	-3	-2	-1	3	1	1	1	1	6	8	7	7	970 57087 -6	-3	-1	-3	-1	-2	3	1	3	3	2	4	7	6	971 61375 4	2	1	1	2	1	-1	-1	3	1	1	-1	-2	-2	968 65535 3	2	1	1	3	4	5	3	-2	-3	-3	-3	1	-2	-4	-4	964 26618 1	2	-2	-1	-2	2	1	1	1	-1	2	960 8183 -1	5	3	3	-1	-1	1	3	1	-1	-3	-2	960 28670 1	1	-4	2	2	3	1	-2	-2	2	1	3	3	964 64383 -10	-4	-1	-3	-4	-5	-1	1	3	3	4	3	10	10	980 60799 -8	-4	-5	2	4	2	3	6	5	4	1	-2	-2	972 64479 9	6	3	3	-1	6	8	9	5	-1	-2	-5	-10	-15	953 62463 4	6	5	4	-4	-1	2	-1	-2	-2	-5	-1	-1	-1	939 65535 11	9	9	13	15	17	12	8	6	3	-1	-3	-9	-21	-31	-34	1068 65535 -150	-128	-103	-77	-41	15	68	111	139	144	119	75	22	-29	-69	-95	935 65279 21	11	-2	-12	-20	-23	-15	5	5	4	4	6	7	7	7	940 65523 2	1	1	3	1	-1	-2	-4	-2	3	3	2	-2	-1	940 65533 3	4	2	-3	-2	-3	1	-2	1	1	-1	-1	2	2	-3	938 59391 1	1	2	-2	-2	1	2	2	1	-1	-1	1	3	2	940 13383 -1	-2	1	-1	-4	-5	-4	929 65407 7	8	4	2	3	1	2	3	-2	-2	-5	-1	1	-3	-3	941 65279 -14	-13	-7	-8	-8	-6	-4	3	6	6	9	9	11	13	15	958 65407 -1	-2	-3	-1	2	3	1	-1	1	4	3	2	2	1	1	957 65397 4	4	3	2	-2	2	3	3	-2	-2	-3	1	-3	955 30683 1	2	3	-1	-1	1	3	1	-3	-4	1	1	952 57341 1	-1	2	3	3	1	-2	-2	1	1	3	2	-2	-1	952 28527 1	1	-1	-1	1	2	-2	-1	3	2	1	-2	952 57319 -2	1	1	1	-1	-1	1	3	2	1	3	2	4	960 65535 -5	-6	-6	-4	-4	-3	-4	-2	1	4	5	6	7	6	7	9	971 65531 1	3	3	3	1	3	5	3	1	-3	-3	-1	3	-1	-3	959 65023 10	16	17	16	8	4	-1	-4	-6	-9	-12	-10	-11	-8	-10	945 65471 3	3	-1	3	2	4	2	-1	-2	2	1	-1	-3	-3	-2	930 65535 14	10	6	-4	-12	-14	-17	-26	-35	-37	-29	-14	7	28	51	76	1048 65535 -2	47	99	137	159	161	134	69	-11	-84	-123	-132	-125	-112	-107	-106	937 16095 -1	2	2	2	1	-2	-1	1	1	1	-2	-1	937 8187 -1	-2	-1	6	2	3	-1	-1	2	-1	2	-1	938 64494 -4	1	2	2	1	-1	2	4	2	1	-1	-1	1	938 65529 -1	-2	-1	-1	1	1	-1	2	-1	-1	2	1	1	1	935 65527 5	5	3	3	2	2	2	3	1	-1	-4	-3	-1	-2	-3	934 65535 -1	-2	-2	1	-1	-3	-4	-1	2	3	-1	1	3	4	8	7	950 65535 -8	-7	-7	-3	-1	-1	-1	1	1	3	5	7	4	5	3	5	957 64507 -1	3	2	-1	-1	3	3	2	-2	-2	1	1	1	-2	954 63997 2	1	3	3	1	1	2	2	1	-2	-4	-3	-3	950 61431 2	1	1	3	2	1	-1	-2	1	1	1	-2	-3	-1	948 31742 1	2	-1	-1	1	3	2	-2	-2	1	2	1	2	948 34303 -4	1	1	2	4	1	-1	-1	1	4	2	951 65211 -1	-2	-3	-2	-3	1	-2	-2	2	2	1	2	8	967 65535 -5	-3	-2	-3	-6	-1	1	2	2	2	2	4	5	7	3	2	968 4095 -2	-2	1	1	1	1	-2	-5	-2	2	8	7	951 65535 17	12	9	8	6	1	-1	-4	-6	-4	-3	-1	-3	-6	-7	-7	943 53247 3	2	1	3	4	3	3	-1	-1	2	3	1	-3	-9	992 65535 -65	-72	-74	-78	-88	-95	-91	-75	-49	-23	9	49	103	158	193	210	972 65535 222	172	98	20	-31	-55	-59	-56	-45	-36	-35	-36	-38	-36	-38	-37	935 32222 -1	-1	-2	-2	-1	2	2	-2	3	4	5	3	935 14782 3	2	1	2	2	-1	1	-1	2	2	936 53198 1	1	3	4	2	1	-2	-1	1	1	-1	939 56419 -3	-1	-2	-3	-1	-5	-4	-2	-3	936 64283 -1	2	2	4	2	-2	-1	-3	-4	1	1	940 65023 -5	-7	-8	-5	-2	-2	-1	-1	2	6	7	5	6	7	10	956 64494 -3	-2	-1	-1	-3	1	2	1	1	-1	2	5	2	957 65535 -1	2	4	1	2	-3	-2	1	4	2	1	-1	-2	-1	1	2	953 65535 4	1	-1	2	4	5	2	-1	-1	1	1	1	2	-2	-3	-3	949 65533 4	4	2	-1	-1	1	1	1	1	-2	-2	-1	1	2	-1	948 49135 1	2	3	1	-1	-1	-2	1	3	1	-1	2	4	2	950 28861 -1	-2	-1	-1	2	2	2	-2	1	958 65407 -4	-4	-6	-6	-6	-5	-2	-1	1	4	6	8	9	8	7	971 65535 -6	-1	2	4	4	3	-1	2	3	2	-1	-1	-2	-1	-1	-2	962 65279 6	7	13	16	14	9	1	-3	-3	-5	-7	-11	-11	-12	-12	948 49905 1	2	3	-2	-2	-4	-2	-6	928 65535 17	17	15	17	16	11	11	10	4	-2	-10	-13	-22	-30	-27	-13	1028 65535 -90	-65	-35	12	65	112	141	148	129	75	2	-61	-103	-116	-109	-98	937 64287 -1	3	-1	-2	-2	1	2	3	2	4	3	1	937 65485 -1	-1	-1	-2	1	-1	1	4	4	3	-2	-1	2	939 59321 -1	-4	-3	3	2	1	-4	3	2	1	1	940 64319 1	2	-1	-1	-1	2	4	-4	-1	-1	3	3	1	941 28646 4	1	-2	-1	-2	2	2	3	1	-1	3	937 36302 2	1	2	-2	-3	-1	-3	-3	-3	949 64511 -10	-7	-8	-7	-6	1	2	2	2	3	5	8	6	9	7	954 32767 1	2	1	-1	-1	-1	-1	1	1	1	-3	-3	2	4	3	952 40951 1	2	1	3	2	1	-2	-1	1	2	-2	-5	-3	949 65533 3	4	4	2	-2	-1	1	2	3	1	-1	-1	2	1	-3	946 50927 -1	-1	-2	-2	2	4	2	-1	1	2	1	947 63102 -2	-2	-3	1	3	1	-1	1	2	2	-1	-1	954 65343 -4	-5	-6	-7	-4	-2	1	2	1	3	4	6	6	7	965 57307 -5	-4	1	1	2	2	6	5	2	-1	-3	2	-1	953 65535 10	9	11	15	16	13	3	-1	-2	-6	-7	-8	-9	-14	-14	-12	941 65517 2	3	2	4	1	1	2	2	-2	-1	-2	2	2	-2	917 65023 22	21	22	18	9	2	-8	-16	-24	-27	-23	-16	-6	7	21	1026 65535 -73	-60	-36	7	59	113	145	154	126	62	-11	-66	-99	-110	-109	-100	933 65495 -2	1	2	3	3	6	5	1	1	-2	-1	-1	-1	-3	934 65531 -3	-1	3	3	1	1	-1	-2	1	2	2	-1	-2	1	-2	933 65471 -3	-1	-3	-1	1	2	2	1	-2	2	4	1	1	-1	4	934 61431 2	2	3	-2	1	3	3	1	-1	-2	-2	-1	-2	-3	929 63967 2	4	5	3	4	2	2	2	-2	-4	-3	-2	-3	927 64511 -1	-3	-3	-4	-1	-2	-6	-6	-2	1	2	3	6	7	13	949 65343 -7	-5	-4	-4	-1	-1	2	3	1	3	4	4	6	4	953 32762 1	4	3	2	-1	-1	2	4	2	1	-3	-1	2	950 65267 3	1	2	3	2	4	3	-2	-1	1	1	-3	-2	948 64365 2	3	3	1	-4	1	1	-1	-2	1	2	-1	947 65519 -2	1	2	2	1	-1	-3	-1	1	1	-2	-1	2	1	2	948 61430 1	-1	-1	2	1	1	-1	-1	1	1	2	-2	-2	962 64959 -10	-8	-8	-9	-7	-3	1	-1	2	6	10	10	10	10	970 65535 1	1	2	3	-1	-2	-3	-2	-4	-4	-3	-1	3	8	9	4	951 65535 17	12	7	8	7	5	1	-4	-6	-4	-4	-6	-4	-7	-6	-6	941 65535 5	3	1	-1	1	2	2	2	-1	-2	-3	-1	1	2	-2	-6	1006 65535 -79	-87	-89	-96	-104	-108	-98	-75	-43	-12	30	80	137	180	197	177	953 65535 173	91	14	-29	-39	-30	-23	-17	-18	-14	-15	-15	-15	-17	-16	-15	937 32239 3	4	2	-1	-1	3	1	-1	-3	-1	1	-3	-4	937 63743 -2	-1	1	1	1	5	3	1	-1	-2	1	1	3	938 44987 1	-1	1	2	3	-1	-3	2	1	2	-1	1	939 57337 2	2	-2	-1	1	2	3	1	1	-3	2	-1	-3	936 63231 2	1	3	3	-2	-2	1	2	1	-1	-1	2	3	2	944 65535 -6	-6	-7	-5	-4	-4	-5	-4	-1	1	4	4	8	7	8	14	962 65535 -1	-2	-1	-4	-2	1	1	1	1	1	1	3	3	5	5	2	962 65500 1	2	3	2	1	1	1	1	2	3	-2	-1	1	960 44799 3	-2	2	2	2	-1	1	1	2	1	-2	-3	-2	957 61823 4	3	1	1	2	-2	-2	-1	1	1	1	-1	957 48079 -3	1	1	2	-2	2	2	3	-2	1	3	1	957 64509 -1	-1	-3	-1	2	1	-1	1	2	3	5	1	2	3	972 64511 -9	-5	-2	-6	-3	3	3	2	-1	1	3	4	7	6	7	980 65535 -1	3	4	3	3	-1	-3	-3	-2	-1	-3	-5	-6	1	6	6	961 65519 17	11	5	4	4	2	-1	-4	-7	-4	-1	-1	-5	-5	-4	951 65487 9	8	6	5	4	6	6	7	6	3	-2	-7	-19	-25	1065 65535 -143	-151	-153	-143	-122	-96	-66	-29	17	69	112	141	158	166	153	102	958 65535 125	42	-11	-30	-27	-16	-8	-9	-9	-7	-6	-5	-5	-8	-11	-8	950 57324 3	4	-1	-3	-1	2	1	1	-1	-3	3	3	952 44799 -2	2	-1	-2	-1	2	2	3	-3	-2	2	5	3	955 37799 -2	1	-1	-1	-2	1	-2	-5	-2	955 65181 -1	1	-1	-1	-1	-4	1	2	2	2	3	-1	953 65467 1	1	1	3	2	-1	-2	-1	1	-1	-3	-3	1	1	964 65535 -9	-8	-8	-4	-1	-1	-1	3	1	2	6	6	10	7	4	8	974 53199 2	1	-2	-1	3	2	3	1	1	2	1	-2	972 15325 3	3	2	2	2	2	2	-3	-3	-2	1	969 65463 3	1	-1	2	3	1	-1	-2	-2	4	1	-1	-3	-1	966 61293 2	2	1	-2	1	3	4	-4	-3	1	1	-2	965 16375 1	2	-1	-2	-4	-3	1	1	2	-1	1	2	5	966 65535 2	-1	-2	-1	1	2	2	3	-1	1	2	2	1	2	-1	3	982 65471 -12	-8	-7	-6	-4	-3	1	3	3	4	8	9	8	9	7	985 62319 3	3	3	3	-4	-3	2	4	-3	-2	1	6	972 65535 22	19	14	8	8	4	-2	-5	-6	-8	-5	-6	-7	-8	-10	-9	961 58367 2	3	1	1	2	-1	-2	-2	1	1	3	-1	-4	982 65535 -29	-29	-35	-39	-45	-55	-65	-69	-61	-40	-18	8	46	95	148	192	1027 65535 176	188	174	140	87	27	-28	-71	-91	-99	-98	-88	-81	-78	-79	-75	953 48123 -2	-2	-2	-1	1	2	1	-2	-1	1	2	2	1	953 32751 2	4	1	-3	-3	-4	-1	2	1	1	-3	-1	1	3	953 27878 -1	-3	1	2	-1	-1	1	-2	-4	953 55293 2	2	-1	2	3	2	2	-1	-1	1	3	1	-3	952 65533 -1	4	2	3	2	1	1	3	2	2	1	-1	-3	-1	-2	946 65255 3	1	2	3	6	3	-3	-3	-5	-1	-1	1	4	960 64351 -6	-6	-7	-6	-3	-1	1	1	5	8	7	7	6	969 65535 -4	-2	1	2	2	-1	-2	2	3	3	2	1	-1	4	3	1	967 65311 -2	-2	-2	1	6	5	5	1	4	3	-1	-4	-2	965 64382 2	5	2	1	-2	3	1	-2	-3	-4	-1	2	2	962 59378 -2	1	1	-2	-2	2	4	2	4	1	2	961 65535 1	-1	-1	1	3	2	-3	-1	-1	-1	2	4	2	-2	-2	-1	962 48062 1	1	-1	1	1	2	2	-2	1	3	3	1	971 65535 -11	-8	-7	-4	-6	-3	-3	2	4	5	6	5	5	6	10	12	980 32695 -1	-2	1	3	2	2	3	1	2	4	-4	-7	-3	965 65279 17	19	15	8	2	2	1	-4	-5	-6	-8	-7	-5	-9	-8	954 65255 -1	1	3	3	2	-2	-1	2	1	1	2	2	2	941 65535 17	15	11	14	16	14	12	5	-3	-7	-8	-14	-25	-26	-17	8	1049 65535 -71	-39	2	50	100	138	160	152	101	23	-53	-99	-116	-120	-113	-105	948 56317 -2	1	3	1	1	1	-1	1	2	-1	-2	-3	2	946 48891 1	-1	1	3	3	1	-2	-1	2	1	-1	1	1	949 48466 -1	-1	1	-2	-1	2	-4	-2	-1	948 63487 -1	1	2	2	-1	-3	1	1	1	1	1	-4	2	2	3	947 48959 4	1	3	5	3	1	2	-2	1	-3	-3	-5	-4	941 63615 2	3	2	-1	-1	-3	-1	1	2	3	3	3	959 65535 -15	-13	-9	-5	-4	-3	-4	1	3	5	7	7	6	7	10	10	970 65522 -2	-2	-2	1	2	2	2	1	-2	1	4	3	-1	970 65535 2	1	2	-1	-1	-2	1	2	2	-1	-3	-2	1	1	1	-1	966 64751 1	2	2	3	1	1	3	1	1	-4	-3	-1	2	964 56958 2	-1	-2	1	2	-1	-1	2	2	1	-2	-2	962 56319 1	-1	-2	-2	3	2	2	-2	-1	-1	2	2	2	2	963 63227 -2	3	1	1	-3	-2	2	1	1	-1	-2	2	2	968 65535 -3	-5	-7	-4	-3	-1	-3	-3	-4	-1	5	7	7	7	6	9	983 33735 -1	3	3	3	2	1	2	1	976 65407 2	3	8	11	15	12	4	2	-1	-3	-7	-13	-11	-10	-10	960 65279 5	1	-1	1	3	2	3	-1	-1	-1	2	-1	-1	-4	-3	944 65535 16	15	14	15	13	13	12	12	7	-5	-9	-14	-17	-23	-27	-21	1057 65535 -111	-80	-46	-3	52	106	147	169	162	114	26	-57	-113	-128	-120	-106	951 57215 3	2	1	1	1	3	3	1	1	3	1	-1	-5	-2	949 27511 1	1	-3	1	1	1	-2	-1	3	2	-1	950 47799 -1	1	2	1	-2	2	-1	-1	1	1	3	952 63487 -2	-4	-5	-4	2	1	-1	-2	2	3	6	5	1	2	1	953 64437 3	2	4	2	-2	2	2	2	-3	1	1	-1	952 59903 -1	-1	1	2	-2	-3	1	2	1	-1	2	5	4	965 65535 -9	-8	-6	-5	-1	-1	2	1	1	2	5	7	7	7	4	6	973 65527 -1	1	-2	1	-1	1	1	3	3	-1	-2	-3	2	2	1	969 65279 2	2	4	2	3	1	-1	4	2	1	-1	-4	-2	1	1	965 65151 4	1	-1	1	3	3	2	1	2	3	1	-2	-3	-1	963 52269 2	2	-4	-1	-3	2	3	-2	962 57319 -2	-2	2	2	-2	-2	1	2	4	3	1	5	3	965 45055 -1	-2	1	1	1	-1	-4	-1	2	2	3	3	3	6	982 65535 -4	-5	-6	-5	-5	-4	-2	1	2	1	3	5	7	6	4	3	981 48127 -1	1	4	4	-2	-1	2	8	9	4	-4	-5	-5	-5	964 65535 9	7	1	2	2	1	-1	-3	-4	-1	1	2	1	-4	-4	-2	955 65535 6	6	7	6	2	4	6	5	4	1	-1	-2	-1	-4	-14	-20	1035 65535 -105	-109	-119	-120	-109	-87	-60	-21	24	82	135	164	164	130	62	-22	948 65535 4	-19	-18	-7	1	5	3	4	3	5	7	6	8	5	3	4	950 52734 1	3	-3	-1	3	1	2	-2	-2	2	4	2	950 60923 -1	-1	1	1	1	1	2	1	-1	-1	-3	2	3	951 65535 1	-2	-3	-4	-3	2	1	1	-1	-1	4	5	4	2	2	3	953 64502 2	2	2	1	-4	-1	2	1	-3	-3	-1	2	2	950 31615 2	2	2	1	-2	-2	1	2	-1	-4	-1	2	2	960 64127 -9	-11	-7	-6	-3	1	1	5	7	8	7	7	10	970 65521 4	3	1	1	-3	-1	1	1	2	-2	-4	-1	1	967 62207 1	2	2	2	-1	1	1	3	-1	-3	1	1	3	963 63487 3	1	-1	-1	1	3	-1	-2	-2	1	2	1	-2	-2	-1	960 65079 3	3	3	1	-1	1	2	-4	-3	1	4	2	960 6655 2	1	1	3	1	-2	-3	-1	2	4	4	963 55295 -2	2	-1	2	3	-2	-3	-2	-1	1	2	1	4	6	978 65535 -6	-5	-4	-7	-8	-4	2	4	9	6	4	4	5	7	6	1	973 65503 2	5	8	6	2	3	7	9	9	5	-5	-9	-10	-14	-14	957 40925 2	1	1	2	1	-1	-3	-1	1	1	1	-1	947 65535 11	11	10	9	7	7	8	8	5	4	1	-4	-9	-11	-18	-27	1041 65535 -130	-122	-104	-71	-40	5	58	115	155	167	148	85	5	-63	-99	-109	949 63266 -15	-8	-5	-2	1	1	-1	1	-2	948 60735 3	1	4	-5	-3	2	-2	1	3	2	2	2	948 10751 1	2	1	2	2	2	2	-2	-1	-1	-1	947 61343 1	-1	-3	1	1	3	1	-1	4	1	1	-1	-1	946 65535 3	5	4	3	3	7	4	4	2	-2	-3	-4	-2	-2	-3	-7	939 65471 -2	-1	-3	-1	-2	-4	-4	-2	-3	2	1	1	3	6	12	964 65535 -10	-10	-11	-6	-2	2	2	1	1	3	4	6	6	5	5	7	971 65511 -1	2	3	1	-1	1	2	1	2	2	-4	3	1	-1	969 65276 -1	1	1	1	2	1	-1	3	2	-1	-1	-3	-1	966 65335 2	1	2	1	1	1	2	2	1	1	-3	-3	-2	964 64487 1	2	-1	3	-2	1	3	-2	-1	-1	4	3	2	966 37631 -2	3	-4	1	1	2	1	1	1	2	3	974 65535 -6	-7	-8	-8	-6	-3	-2	-2	-2	3	6	7	7	8	7	8	986 65533 -1	-1	2	5	1	3	3	6	2	-1	-4	-2	-1	2	-2	974 65279 5	9	15	15	15	7	1	-1	-4	-8	-10	-13	-12	-11	-8	961 39883 4	2	1	2	-1	-1	-1	1	-2	-1	948 65535 13	14	16	12	9	8	5	-2	-10	-16	-23	-32	-30	-16	11	44	1051 65535 -24	25	84	136	168	171	133	56	-30	-91	-117	-116	-105	-98	-95	-95	953 64983 3	2	1	2	2	1	1	-1	-2	1	1	-2	-3	953 45055 -2	1	-2	-2	1	2	2	1	-1	2	2	1	3	2	955 63455 -2	1	-1	1	1	-1	-2	2	3	-1	-2	-1	1	3	955 65435 1	1	-5	-1	1	4	1	1	-1	3	1	-2	-1	952 63415 3	4	3	1	2	1	2	-1	-3	-2	1	-2	-3	956 65535 -9	-6	-5	-4	-3	-4	-6	-5	-2	3	4	6	6	7	9	13	973 63421 -4	-5	-5	-2	2	2	1	-1	5	4	5	2	3	975 63986 3	2	2	2	-1	3	2	-1	-2	-1	-1	972 65483 -1	1	3	3	2	1	-1	-1	2	2	-1	-1	-1	967 57311 4	1	-1	2	1	1	1	-2	-1	1	2	-1	-1	-1	966 63479 1	3	2	-1	1	2	3	2	1	-3	-2	-1	3	-1	965 49055 -2	1	4	2	2	-1	-3	-2	1	-3	1	3	3	974 65535 -6	-9	-10	-8	-7	-2	-3	-1	2	5	7	7	6	7	8	9	985 62927 3	5	7	3	2	1	-1	-1	-2	-4	-3	-2	972 65023 13	19	20	15	9	3	-2	-5	-4	-7	-9	-12	-10	-11	-9	959 52991 4	2	4	3	1	-1	-1	1	3	-1	1	-2	-2	948 65535 9	10	6	-2	-11	-16	-19	-26	-36	-40	-31	-12	12	34	52	82	1053 65535 16	71	121	151	165	155	104	29	-42	-91	-118	-123	-117	-110	-101	-98	949 65515 4	1	1	4	2	3	3	-2	-4	-2	-1	1	-1	-1	950 65391 -1	1	1	-1	-3	-1	1	3	-1	-2	-1	3	4	3	951 65533 -1	-1	1	1	2	-1	-1	1	1	3	2	-2	-3	-1	1	951 29855 1	-2	-2	1	-1	1	2	1	-1	1	950 64437 4	4	3	2	-2	3	3	4	-3	-1	1	-3	950 65535 -3	-3	-1	-1	-1	-2	-4	-2	2	2	1	2	2	6	7	10	966 65279 -5	-3	-6	-3	-1	2	1	-2	1	1	4	6	5	2	3	969 63451 1	3	3	2	-1	3	2	3	-2	1	-1	1	-3	965 65517 1	1	2	4	1	3	-1	-1	-1	4	1	-4	-4	-1	961 57339 3	3	1	4	3	1	1	-2	-2	-2	-1	1	-1	-2	959 61183 2	3	2	-2	-1	1	1	-1	-2	-1	2	1	2	-2	958 64502 -3	1	-1	1	2	-1	-2	3	3	1	1	1	1	964 64447 -7	-7	-9	-5	-4	-1	-2	-3	5	10	9	10	7	7	979 63487 -4	-1	2	3	5	4	4	3	-2	-3	-2	-2	-1	-2	-2	968 65535 8	7	5	7	7	7	11	9	6	2	-1	-7	-11	-13	-11	-12	952 65255 3	4	3	4	5	5	2	-1	1	-1	-3	-5	-4	932 65407 19	18	19	16	15	16	12	8	-6	-14	-24	-30	-27	-17	3	1058 65535 -106	-86	-59	-22	20	64	96	126	140	131	87	22	-48	-98	-126	-138	938 57339 -16	-4	3	3	2	2	2	1	3	4	6	4	-2	1	940 28639 2	3	-1	-2	-1	2	-1	2	1	2	2	4	1	939 65531 -1	2	2	2	2	4	-3	-1	-2	1	2	-1	-1	3	4	939 65534 5	2	-1	-1	1	2	1	-1	-3	-1	-1	2	2	1	-2	939 65531 3	4	3	1	-1	1	3	2	3	1	-2	-1	-2	-3	-5	933 65407 -2	2	3	4	4	1	-4	-2	2	3	-1	-3	-1	-1	1	945 65279 -11	-13	-13	-11	-5	-1	1	1	3	6	11	13	10	9	11	957 28543 4	1	-2	-1	2	3	-3	-4	-1	2	4	5	4	956 64479 2	4	4	3	1	-3	-1	-1	3	1	-3	-3	-2	1	953 65239 6	3	2	1	3	3	1	-2	-3	1	-3	-2	-3	950 60927 2	3	3	-2	-1	-1	-2	-3	-5	-2	3	4	3	4	950 10751 -2	2	1	1	2	3	2	-3	2	1	2	951 62429 -2	-1	-4	-2	2	-2	-1	-2	6	2	1	4	966 64991 -7	-4	-4	-4	-7	-3	1	2	4	4	5	7	9	7	969 65279 2	2	2	1	1	-3	-1	2	2	-2	-5	-4	-3	3	5	952 65023 21	15	7	4	4	2	-1	-8	-6	-7	-4	-4	-5	-9	-7	943 64431 4	1	3	-1	-1	2	3	1	-3	-1	1	-2	-7	980 65535 -50	-56	-59	-61	-72	-83	-83	-69	-43	-16	9	39	72	117	164	200	999 65535 206	208	175	108	27	-33	-69	-85	-83	-73	-63	-61	-62	-63	-67	-65	936 55782 1	4	1	-1	2	1	-2	-2	2	-1	936 49139 -1	1	1	1	-1	-4	-3	-1	2	2	2	1	2	936 61179 3	-1	-2	1	1	2	-1	2	1	5	2	-2	1	936 64935 1	3	3	2	-2	-2	2	2	-1	2	4	1	932 65279 2	4	5	6	6	1	-2	2	3	1	-2	-6	-4	-3	-3	933 65535 -4	-6	-8	-5	-4	-3	-3	-2	-5	-2	1	6	9	9	10	12	956 65503 -7	-5	-5	-3	-4	-4	-1	3	1	3	4	3	6	7	5	961 64367 -2	-2	1	1	2	-2	-2	2	3	-1	-1	2	2	958 65211 4	3	-1	2	2	3	3	-3	1	4	1	-5	-5	956 32127 2	3	2	-2	-1	2	-1	-2	-2	-2	1	1	-1	952 65531 -1	1	3	3	2	-1	1	-1	1	3	2	1	-2	-1	-1	952 63103 -1	-3	-4	-2	3	2	-1	2	2	3	1	-1	-1	953 61423 -1	1	1	-4	-1	-1	1	3	2	-3	2	4	4	5	971 65535 -14	-8	-5	-1	-1	-1	-3	-1	1	5	4	4	3	5	8	7	973 65019 5	2	1	-2	-1	1	-1	-2	-3	-2	-2	-1	4	5	956 63487 19	12	10	7	-1	-2	-2	-3	-5	-6	-5	-5	-3	-4	-7	947 65535 1	2	2	1	1	2	-1	-1	2	1	1	2	-1	-1	2	-1	975 65503 -34	-44	-52	-57	-60	-69	-74	-69	-52	-26	28	62	105	155	199	1050 65535 154	175	189	190	162	98	13	-66	-114	-128	-123	-114	-105	-104	-105	-108	940 15695 3	6	4	1	-2	1	-1	-1	1	1	939 61436 2	-1	-2	2	3	2	1	-2	1	1	3	3	-1	941 65423 1	2	1	-1	-3	-1	-1	1	3	2	5	4	1	942 30635 -1	1	1	-1	-2	1	2	2	-1	1	3	943 61159 4	-1	-3	2	4	2	-1	2	1	-1	-2	-2	940 61247 2	3	3	-1	-1	2	1	-4	-1	1	3	1	2	955 65279 -14	-8	-7	-2	-2	-2	-4	3	5	6	5	4	4	7	10	963 47033 1	-2	-1	3	1	1	-1	1	1	4	1	961 65527 3	4	5	-1	-2	3	1	3	3	-1	-2	-2	3	-1	-2	958 32348 2	2	4	5	2	-2	1	-2	-2	-2	954 44783 3	-2	2	4	2	-2	-1	1	1	2	-2	-1	953 64503 2	4	4	2	-1	2	1	1	1	-3	-1	3	2	-2	954 49151 -2	1	2	2	1	-2	-2	-1	1	2	-2	-4	-1	3	3	963 65407 -7	-7	-11	-8	-5	-4	-2	1	4	6	7	9	7	6	11	975 65535 3	3	4	3	1	1	2	3	2	-3	-4	-6	-4	3	3	-4	966 65535 2	6	11	16	17	13	5	2	1	-1	-3	-7	-14	-15	-12	-12	950 65535 1	2	1	-1	1	3	2	-3	-1	-2	-1	2	1	1	-1	-3	934 65535 16	15	16	10	1	-6	-10	-11	-16	-28	-38	-34	-15	7	37	64	1046 65535 -10	46	104	143	162	161	129	64	-11	-75	-114	-131	-128	-116	-106	-103	939 65279 4	1	-1	-1	1	4	3	-1	-1	-1	2	2	2	-1	1	942 24447 1	-2	-3	-2	-1	2	1	-2	1	-1	3	3	2	943 53239 -2	-2	2	-1	-4	-1	1	2	3	3	1	2	3	943 34815 3	1	1	-2	-4	-5	-1	2	5	3	-1	-1	942 64495 3	2	3	2	-1	1	2	3	-2	-1	-1	3	-1	-1	941 61439 -3	-3	-2	-2	-3	-3	-3	1	3	5	3	2	4	6	9	956 65215 -3	-4	-4	-3	-3	2	1	-2	1	3	4	3	3	3	960 61436 2	1	1	-3	-1	1	3	2	1	-1	-1	1	1	955 49083 2	2	4	2	1	-5	-2	-1	1	-1	-1	2	1	951 65403 6	2	-2	-2	-1	2	2	1	1	2	1	3	-4	-4	948 65503 1	2	3	1	-2	-1	1	2	1	1	-1	1	3	2	-1	947 49023 -1	3	2	3	-1	-2	-2	4	4	1	-1	-1	1	1	951 65535 1	-2	-4	-4	-5	-3	-3	-5	-5	-3	1	6	8	9	8	7	967 65535 -7	-5	-4	-3	-2	-3	1	3	6	4	1	2	2	4	4	-1	961 64511 5	6	8	7	5	2	7	10	9	5	-4	-9	-13	-15	-14	942 61402 5	4	-1	-1	2	3	1	-2	-2	1	1	-2	926 65535 16	18	18	15	11	9	10	6	-3	-7	-14	-22	-32	-25	-10	13	1052 65535 -94	-68	-37	8	59	103	131	150	146	109	37	-38	-96	-128	-139	-134	933 49022 -5	-2	-1	-1	2	3	3	-1	1	1	1	1	1	932 61438 2	1	3	-4	-2	-1	3	1	3	1	1	1	1	4	931 47213 -2	1	2	1	3	3	-4	-2	2	933 63231 3	1	-1	-2	1	1	-3	-2	1	4	4	1	-5	-2	927 65531 3	5	4	3	3	1	1	2	1	-1	-3	-2	-3	-1	-5	928 65535 -5	-8	-7	-6	-7	-5	-8	-7	-5	1	4	5	7	11	15	15	951 65533 -5	-5	-9	-5	-2	1	3	3	2	1	3	6	7	2	1	954 65279 3	4	3	-2	-6	-6	-2	1	1	-3	1	2	5	3	-1	951 32748 2	3	5	3	2	-3	-3	-3	-1	1	-1	-2	947 45039 2	1	2	4	2	1	-3	-1	-1	2	2	-3	-3	945 28671 1	1	-2	-3	-3	1	4	1	-1	1	1	6	3	2	948 56251 -2	-2	2	2	-2	-3	-1	2	-1	-1	2	5	964 65471 -10	-8	-6	-5	-2	-2	2	1	-2	3	8	9	9	6	9	969 61439 3	6	4	-3	-1	1	1	-1	-3	-7	-1	5	5	1	-7	949 65453 8	5	4	2	1	-1	-6	-4	-2	2	-2	-2	1	944 65535 5	4	1	4	5	5	5	2	-1	1	3	5	3	-2	-11	-19	1029 65535 -106	-106	-115	-123	-118	-95	-64	-29	22	79	135	173	182	144	63	-28	938 32767 -20	-15	-3	6	5	4	3	2	6	5	5	1	4	5	2	942 63198 1	-1	-1	-1	2	1	-1	1	2	3	1	-2	943 20414 1	-1	-2	2	2	2	-2	-2	1	1	1	941 24569 -3	2	2	1	-1	-1	-1	3	4	3	1	5	942 65407 3	3	1	3	4	5	2	2	-2	-4	-1	-1	-2	-5	-6	936 28543 2	3	-3	-3	-2	1	-2	-3	-1	1	2	4	3	955 65535 -16	-14	-9	-5	-2	-2	-4	-2	3	5	6	6	7	7	9	12	965 44798 3	-4	1	3	2	-1	-1	1	3	2	2	-1	964 32246 4	3	2	1	-1	2	1	1	-1	1	1	1	961 49151 2	1	2	2	1	-1	-1	1	3	2	-1	-2	-3	-2	-1	959 40958 2	2	1	4	2	2	-1	-3	1	4	1	-1	-2	960 61183 -1	1	1	-1	-3	-1	2	-1	-3	-1	1	3	2	1	962 64499 -2	-1	-3	1	2	-1	-1	1	1	3	1	3	6	980 65151 -7	-6	-7	-6	-3	-1	-1	4	6	8	8	6	5	1	983 65503 -1	2	-2	-1	-1	-1	-3	-1	-2	-3	6	9	6	-1	-7	963 65439 11	6	5	3	1	-1	-5	-2	-3	-2	-3	-6	-3	-1	950 65535 9	7	4	6	7	7	7	7	6	4	4	3	-4	-15	-24	-26	1079 65535 -162	-164	-155	-133	-102	-74	-42	1	56	106	140	162	170	147	78	-20	950 65396 27	-15	-21	-5	2	3	2	-1	4	4	1	-1	950 65275 1	-1	-2	-1	-1	3	1	-1	-1	1	2	3	-2	-1	952 15637 1	-1	-1	-4	-1	-1	2	2	950 48093 1	2	4	1	-1	-1	-1	2	1	1	1	4	950 53211 3	2	1	4	1	1	-3	-1	2	1	-2	-3	950 49151 -1	-1	-1	-3	-2	-2	2	1	-1	-3	-2	3	3	5	6	965 65535 -10	-8	-3	-2	-1	-2	-2	-2	2	4	4	4	3	3	6	8	970 57085 3	4	2	2	4	3	-2	-2	-2	1	3	-1	-4	967 60881 2	3	3	-1	-2	2	2	-1	-1	-2	963 49007 1	2	3	1	1	-2	-2	1	2	-1	-1	1	2	961 47079 3	1	-1	3	1	2	-1	-1	-1	1	-2	-1	961 63351 -1	1	2	-1	-2	-1	3	-1	-1	1	3	2	-2	965 63295 -3	-4	-2	-1	-3	-3	-3	1	-1	3	5	10	13	982 62719 -4	-6	-6	-5	3	1	2	5	8	4	2	2	-1	978 65535 5	6	3	4	2	-3	-2	5	8	11	4	-1	-5	-6	-10	-14	960 24559 1	3	2	1	-2	-2	2	3	4	-3	-2	-1	-2	945 65535 17	15	11	12	14	14	14	13	7	1	-5	-9	-13	-18	-29	-39	1041 65535 -134	-124	-109	-92	-83	-74	-60	-41	-14	23	73	122	157	164	131	64	954 65503 70	5	-21	-18	-8	-3	-4	-2	-2	3	-2	-2	-1	-2	-1	951 32671 2	1	-1	1	4	2	1	1	3	1	-1	-3	-1	952 28671 1	-1	-2	-3	1	3	2	1	-2	-1	2	3	3	2	950 48639 1	1	4	1	-1	-2	1	4	1	1	3	-1	-1	2	951 1527 2	-1	-4	-2	-1	-1	-1	-3	-3	946 32187 4	3	1	1	-2	3	1	-1	-1	1	-1	-2	953 65535 -9	-9	-8	-2	-2	-2	-2	-3	1	4	4	5	3	2	10	11	963 65531 1	1	-1	-2	1	3	5	1	1	-1	3	3	2	-1	-2	961 65533 2	3	1	-2	-1	-1	1	4	1	2	-1	-2	-1	1	-2	957 48253 2	4	5	2	2	1	-1	-1	-1	-2	1	953 65499 5	2	2	2	3	5	2	1	-3	-4	-1	3	-1	-1	953 65517 -1	1	3	3	-1	-1	-1	1	1	2	2	1	4	-1	953 59381 -3	-2	1	-1	-2	-1	1	3	3	1	-1	5	967 65471 -8	-8	-7	-6	-2	2	1	-1	-3	4	6	6	8	8	7	973 65535 3	6	6	4	1	-1	-2	2	-1	-5	-3	-3	2	6	2	-4	954 65534 10	3	1	6	3	2	-1	-3	-2	-1	-3	-3	-4	-5	-1	950 65271 5	4	4	2	1	2	-1	-5	-4	-1	1	-1	-2	-3	957 65535 -9	-7	-11	-16	-26	-30	-31	-40	-45	-46	-33	-9	19	53	95	146	1024 65535 126	163	180	172	128	55	-16	-68	-93	-100	-98	-92	-89	-88	-90	-84	941 32767 1	2	-1	4	4	5	2	-2	-3	1	1	-2	-2	-4	-3	941 65013 -2	2	2	1	2	-1	2	1	-2	-2	-1	2	1	941 22527 -2	2	-2	-2	-3	1	3	3	2	2	2	3	5	941 65341 4	2	-1	-2	-1	1	1	2	1	2	3	2	-2	938 65471 4	3	5	3	1	1	2	4	4	-3	-3	-1	-1	-3	-5	930 47083 1	1	2	-2	-1	-3	-1	2	2	1	3	8	951 63999 -12	-12	-10	-9	-4	2	2	1	6	8	8	8	7	6	962 61439 -2	2	1	-3	-3	-3	2	2	1	-1	-1	1	4	2	1	960 48629 -1	2	1	2	-2	-1	1	1	1	3	-2	2	959 61019 2	3	1	-1	3	2	-3	2	3	-1	-1	958 30582 1	3	1	-2	1	2	-1	-2	-1	4	3	960 16383 1	4	1	-3	-3	-3	-2	2	2	2	-3	-2	1	3	962 64479 -1	-6	-3	-1	-4	1	-2	-2	-2	3	5	6	7	9	980 65375 -5	-4	-3	-4	-5	-5	-3	1	2	1	5	9	8	3	980 65471 1	3	3	5	2	2	-1	-4	-2	3	2	4	2	-3	-7	960 60895 9	6	1	4	2	-3	-4	-1	2	2	-2	-2	-4	957 63439 1	4	3	1	-2	2	2	3	1	-1	1	-2	-8	1009 65535 -69	-76	-78	-80	-88	-97	-95	-83	-55	-23	12	52	106	159	201	222	992 65535 230	186	112	27	-31	-57	-63	-59	-52	-45	-40	-38	-40	-42	-42	-45	949 64511 -1	3	3	1	-1	1	1	1	-1	-1	-2	1	4	3	2	952 39935 -1	2	1	-2	-2	1	3	3	-1	1	-1	1	2	953 31423 1	-1	-2	1	3	-3	2	3	3	2	2	2	954 52694 2	2	-1	-1	1	1	-1	-3	1	1	950 65022 2	2	2	4	5	1	-1	1	3	1	-1	-1	-5	-3	951 65279 -1	-3	-4	-6	-3	-2	-1	-3	-1	1	5	6	6	5	4	968 65023 -9	-6	-7	-5	-5	-5	2	4	3	1	3	6	9	7	6	974 32757 -1	1	3	1	3	-1	-2	2	3	3	3	-1	1	971 65031 5	2	1	1	2	4	2	1	-2	-4	967 65527 1	2	3	2	-1	-1	1	2	2	1	-3	-4	3	2	1	965 49085 2	3	1	1	2	-2	1	1	2	3	1	-3	3	966 32442 -2	-2	-1	-1	1	1	-2	3	3	4	1	971 63471 -1	-2	-1	-3	-3	-3	-4	-4	-1	-1	3	4	10	10	987 65532 -4	-4	-5	-3	1	1	1	2	5	5	6	3	2	-2	980 65535 7	8	2	4	7	13	14	11	3	-2	-2	-5	-8	-10	-13	-14	963 64378 4	4	6	3	1	2	1	-2	-2	-3	-3	-1	945 65407 15	16	17	17	17	15	11	8	-6	-9	-13	-22	-30	-25	-5	1055 65535 -85	-53	-16	35	98	147	169	164	118	33	-55	-107	-121	-115	-106	-101	954 57023 4	3	3	2	1	1	3	-3	-4	-3	-1	2	-1	953 65503 -2	-3	-1	1	1	-1	-1	-2	2	-1	1	-1	1	3	4	955 65534 3	-2	-1	-2	1	2	2	-1	-1	-1	1	1	3	-1	-1	956 65525 1	1	2	1	-1	-3	1	3	3	1	-2	-2	2	-1	955 56831 1	-2	3	1	2	-1	2	3	2	1	-1	-2	-1	2	952 63455 3	3	1	-2	2	2	1	1	-2	3	2	1	-3	-1	962 65535 -11	-8	-6	-5	-5	-5	-3	2	4	5	5	5	7	9	10	9	972 64639 -1	-2	1	4	3	-2	2	2	1	1	-2	2	3	971 65235 4	2	2	-1	1	2	1	-1	-2	1	-2	-2	968 63423 2	3	1	2	-2	2	3	2	-2	-4	-1	-2	-1	-2	963 48953 2	3	5	2	1	-1	-3	3	2	1	-1	963 64125 2	2	-2	-3	-1	1	-1	3	4	2	2	-2	966 55295 -1	-2	-2	-4	-1	1	3	-1	-1	-1	-1	2	4	6	979 53231 -5	-5	2	2	-1	-3	-1	1	1	-1	1	3	9	984 57851 5	3	1	-2	-3	-4	-1	-3	-3	3	6	965 65535 22	16	10	8	4	2	1	1	-3	-3	-8	-10	-7	-6	-6	-7	956 64503 3	1	1	3	2	-1	-3	1	1	2	3	1	2	-1	982 65535 -29	-36	-43	-50	-53	-60	-70	-74	-64	-40	-15	16	57	111	160	197	1001 65535 202	196	151	81	14	-41	-69	-74	-70	-65	-60	-56	-53	-53	-53	-50	948 32635 1	2	3	2	-2	-3	-4	1	1	3	-2	1	2	948 47030 3	-1	-2	1	2	2	1	1	2	2	-2	948 65407 1	5	4	2	-1	-2	-2	-1	-2	1	1	2	1	-2	2	948 52727 -2	-1	1	1	-2	-1	3	3	2	2	2	5	946 65535 6	3	1	1	1	2	2	2	-1	-1	-1	1	1	-2	-2	-6	942 57247 1	-1	-4	-2	-3	-4	1	1	1	3	6	8	8	959 65535 -8	-6	-3	1	-3	-1	1	1	3	5	4	4	2	-2	2	8	966 53731 2	2	1	-1	-1	-4	1	-3	-5	962 64503 1	1	3	1	2	3	5	3	2	1	-1	1	-3	-4	957 49142 1	2	3	2	1	-1	-2	-1	2	3	2	-2	-2	956 63328 -1	2	-1	-4	1	4	3	-1	-2	956 30655 -1	-1	-1	1	1	4	2	-1	-2	2	2	4	3	966 65407 -9	-8	-7	-5	-4	-5	-3	-1	2	6	5	2	7	13	15	976 64957 4	2	2	1	1	3	-2	-6	2	1	-2	1	2	960 63487 15	13	10	6	-5	-5	-3	-2	-3	-4	-6	-4	-1	-2	-5	951 57310 2	-2	3	4	-1	-2	-1	2	2	1	-1	-3	-2	997 65535 -46	-49	-58	-67	-68	-74	-82	-84	-74	-46	-8	31	85	142	189	212	980 65535 216	163	81	6	-40	-54	-51	-44	-36	-34	-34	-36	-35	-33	-32	-32	945 31725 -2	-1	2	2	1	1	1	3	2	-1	-1	1	944 49151 -1	-2	-3	1	1	4	2	2	1	3	3	2	1	-1	-1	945 32679 2	1	2	1	-1	1	1	1	-1	2	3	1	945 63999 -1	1	2	2	1	-1	4	4	5	1	-2	-3	-4	-1	937 58087 6	4	2	2	-1	-2	-2	-2	-3	-3	950 65535 -14	-9	-9	-7	-5	-5	-1	2	4	3	5	5	7	10	12	12	968 59391 -5	-5	-4	1	-2	-2	3	5	6	5	2	-1	4	3	970 65407 3	2	-1	-1	1	2	3	1	-1	1	1	2	1	-2	-3	968 64991 1	3	4	1	1	-1	3	3	2	-5	-3	-1	-2	1	965 61372 2	1	2	1	-1	-1	-1	-1	2	1	-1	-4	965 65531 2	1	-1	-1	-1	2	2	3	-2	-3	1	2	2	-1	-1	966 16335 1	-3	-2	-4	-2	1	3	-1	2	3	4	3	983 63487 -11	-11	-7	-2	-2	-1	-1	2	7	8	7	6	4	3	7	983 65527 4	3	-3	-1	2	4	1	1	5	8	10	6	-6	-8	-12	964 65535 3	5	3	2	-2	-3	1	1	1	1	-1	-3	-2	-1	1	-1	951 65535 11	6	8	13	13	11	9	8	10	10	7	-4	-15	-20	-24	-31	1055 65535 -136	-123	-93	-57	-14	41	100	148	175	175	132	52	-42	-108	-126	-117	953 65393 2	6	6	1	-1	-1	2	1	-1	-1	-2	-4	951 65487 -2	-1	1	2	3	3	1	-1	2	1	-1	-1	1	1	953 65370 1	1	-2	-1	-2	1	2	1	-1	3	1	2	954 32219 2	2	1	1	-1	1	1	2	-2	-1	2	2	953 65254 2	1	2	3	4	3	-1	1	1	2	-2	-1	955 64991 -1	-3	-5	-6	-1	-2	-2	-2	-3	2	4	6	7	8	973 65535 -7	-5	-4	-1	-2	-2	1	2	3	3	2	1	3	3	4	3	975 5431 3	1	-2	1	1	-3	-1	-1	970 63423 3	4	2	1	3	-2	2	-3	1	3	-1	-1	-4	-3	965 32567 3	4	2	1	-1	2	1	-3	-4	1	1	1	963 48637 3	2	1	1	-1	-1	1	1	2	2	2	-2	1	964 38875 1	-3	2	3	1	1	1	3	1	-1	-2	976 65535 -12	-9	-8	-7	-5	-5	-2	2	4	1	4	3	7	10	11	12	985 65535 3	4	6	5	4	3	1	-2	-1	-2	-1	1	-2	-6	-4	1	969 65023 22	23	14	8	5	4	-3	-5	-7	-7	-8	-6	-7	-8	-10	958 65278 1	4	4	4	1	-2	-1	-1	-2	-2	-4	-1	1	1	985 65535 -29	-32	-37	-44	-50	-56	-66	-74	-70	-48	-18	13	49	101	159	208	1005 65535 213	208	160	71	-14	-65	-75	-67	-56	-55	-52	-51	-51	-51	-54	-55	950 63475 -1	1	1	2	-1	1	1	1	1	-1	-2	2	2	952 65447 -1	-2	1	1	2	3	-2	-3	1	-1	-1	1	3	952 7935 -2	1	3	4	1	-2	-1	2	3	2	2	-1	954 32731 1	4	-1	-1	-1	3	2	3	4	-1	-1	2	1	953 48639 2	2	1	4	1	-3	1	1	1	1	-3	-2	-2	-1	957 65023 -4	-6	-5	-7	-6	-4	-2	1	-1	2	4	7	8	10	11	974 46526 -4	-1	2	-1	1	3	-1	-2	2	2	2	971 64927 1	-1	1	3	2	1	-3	-1	4	4	-1	1	-1	969 64921 3	4	1	-1	-2	1	1	1	1	2	-4	966 63923 1	2	2	2	-1	-1	2	1	-1	2	2	962 56901 2	-2	1	2	5	1	1	-1	2	963 55295 3	1	-3	2	3	2	-2	-5	-2	1	2	1	-1	-2	969 65279 -6	-5	-5	-5	-4	-6	-2	6	5	4	3	6	6	7	6	981 65534 -3	-6	-3	-1	1	3	4	2	3	2	2	2	-1	-2	-2	970 65535 11	8	4	6	11	15	12	5	-1	-4	-8	-8	-10	-12	-14	-14	955 63231 2	6	3	4	-2	-2	1	-1	-1	-2	-1	2	2	-2	942 65535 10	8	9	13	12	3	-5	-10	-14	-21	-30	-30	-18	2	28	53	1078 65535 -45	-3	45	80	109	131	146	138	101	33	-47	-105	-135	-149	-145	-141	946 65506 -1	2	2	1	1	-3	1	2	4	3	3	-2	945 16372 1	1	-2	-3	-2	-1	1	2	4	5	-4	945 38911 1	-1	2	4	3	1	2	2	2	1	1	-2	-3	945 57326 -3	-3	1	-3	-1	-2	1	2	2	-1	1	4	3	941 65262 2	2	3	5	5	2	1	1	3	1	-2	-6	-4	938 57342 3	3	-3	-1	-1	-1	-1	-3	-4	-2	1	5	3	2	955 65535 -12	-8	-6	-4	-3	-6	-3	2	5	6	5	5	6	7	10	10	964 48637 -1	-1	1	1	1	-2	-2	2	2	3	2	-2	1	959 56767 5	5	-2	-2	-3	-2	2	1	2	3	3	1	-2	957 29692 4	4	2	2	2	3	1	-1	-3	-1	-2	953 65023 3	-1	-2	2	2	3	-2	2	4	3	1	-1	-1	-1	2	954 55023 1	2	-1	2	2	-1	-3	-1	1	2	-1	-3	955 63487 1	1	3	2	-3	-1	-1	-2	-1	-1	-1	2	2	6	7	971 65023 -9	-7	-5	-4	-3	-2	-1	1	5	8	7	6	5	4	4	969 65527 5	3	6	1	1	1	1	4	6	6	6	3	-2	-11	-16	950 65499 2	2	2	2	-1	-3	-1	1	2	1	-2	-2	1	1	947 64767 3	2	3	3	4	3	2	4	4	3	1	-6	-11	-15	1033 65535 -105	-109	-117	-127	-121	-106	-82	-51	-22	20	80	130	165	179	161	105	947 65535 117	48	3	-19	-25	-29	-19	-12	-7	-6	-8	-10	-6	-4	-3	-5	940 65021 2	-1	-1	2	4	1	-1	-1	1	1	2	-1	-2	4	941 53215 3	4	-1	1	4	1	-1	-2	2	1	1	1	-2	942 61366 1	3	-2	1	-1	2	1	3	-1	-1	1	1	943 48766 -1	1	2	4	4	2	1	2	3	-1	-2	-3	937 65535 6	6	5	1	3	1	5	2	-1	-3	-3	-3	-1	-1	-6	-6	940 65407 -10	-6	-6	-7	-6	-9	-5	-1	4	3	2	5	10	13	15	961 65535 -9	-7	-6	-2	1	1	2	-1	1	2	5	5	2	1	5	5	966 45379 -1	-2	-2	2	-4	-1	-4	962 63359 2	3	2	3	-1	-1	1	1	-1	-2	-1	1	2	2	958 49002 2	2	2	5	3	1	-2	1	4	-1	-2	956 65517 2	1	1	-2	-4	-1	4	2	1	-1	-1	3	1	-1	958 65403 -2	1	3	2	1	-2	-1	1	2	-1	-3	-1	2	2	958 62463 -1	-2	-2	-2	1	-2	-2	2	4	2	1	-1	1	2	970 64479 -9	-7	-6	-7	-5	2	2	4	1	4	6	8	8	9	978 65023 2	3	2	4	1	-5	-1	-2	-2	-4	-5	-1	5	8	1	959 65535 16	10	7	6	4	1	-2	-3	-5	-4	-2	-2	-4	-5	-5	-3	954 65485 2	3	2	-3	-1	2	4	2	-2	-2	2	1	-3	942 65535 11	11	13	10	4	-6	-13	-17	-20	-28	-35	-33	-16	10	40	73	1048 65535 4	57	115	156	173	161	112	32	-51	-104	-118	-115	-109	-106	-101	-101	945 64383 2	2	2	-1	1	2	1	-2	-1	1	2	1	-1	-2	945 32231 -1	1	1	1	-2	2	3	3	2	-1	4	2	947 32759 -3	-2	-1	2	2	1	-2	-2	1	3	3	-2	-1	1	947 57343 1	1	-1	2	2	2	4	2	-2	-1	1	2	2	1	-3	948 65531 -1	1	1	2	1	-1	-2	1	4	4	1	-3	-4	3	1	948 61335 -1	-2	-2	2	1	1	-4	-1	-1	2	3	5	963 64511 -7	-7	-5	-7	-2	2	4	3	-1	4	6	8	7	5	3	969 52345 -1	1	-3	-3	-1	-2	-3	-1	1	964 65390 4	3	2	4	5	3	1	-1	-1	1	-2	-4	-2	961 63439 4	3	-1	-2	2	4	3	-1	-2	1	1	-2	-4	958 14138 3	1	-2	-2	1	-1	-3	-1	2	958 65279 -1	-1	-1	2	2	1	2	1	1	3	2	1	-1	-1	1	959 54127 1	1	-1	3	2	-2	-2	1	2	1	-2	976 65535 -12	-9	-3	-1	-2	-5	-2	1	3	1	3	4	7	7	8	7	977 53247 4	1	3	2	-1	-3	-2	2	9	9	3	-4	-7	-8	958 65535 10	6	4	-1	2	4	3	2	-3	-4	-2	-1	1	-2	-1	-4	954 28599 2	3	1	-2	-1	-1	2	-1	-2	-1	2	-2	998 65535 -51	-62	-67	-69	-75	-87	-88	-79	-56	-28	2	43	93	145	188	204	979 65535 209	158	79	5	-43	-55	-47	-37	-33	-35	-36	-35	-31	-28	-29	-32	947 61946 -1	1	2	2	1	2	2	-1	-3	-2	1	947 51199 -1	-3	2	1	-2	-1	2	3	3	2	1	1	3	949 57087 3	3	-2	-1	1	1	-3	-2	-2	1	2	2	1	-2	949 49135 -1	3	1	-1	-2	-2	2	4	3	3	-4	1	4	4	949 64999 2	1	1	2	2	4	-3	1	1	2	-2	1	-3	952 65151 -4	-3	-4	-6	-6	-4	-1	-1	2	4	5	7	6	5	963 64895 -5	-3	2	3	1	-1	1	2	2	-1	1	3	2	3	963 57342 3	2	2	3	3	3	-3	-3	-1	1	2	1	-1	-2	961 65503 3	3	4	1	-1	-1	2	2	1	-1	-1	-1	1	-2	-1	958 32479 4	5	2	2	-2	-1	2	3	-2	-3	-3	-2	-3	954 61439 1	-1	-1	3	2	2	-2	-1	1	3	2	1	-1	-1	2	955 64815 2	4	1	-3	-3	1	2	-1	4	4	2	2	970 65535 -10	-7	-4	-2	-3	-5	-5	-3	4	5	6	3	6	8	9	7	971 65535 5	1	1	3	5	4	1	-2	1	5	8	5	-4	-9	-10	-10	953 65535 4	2	2	-3	-3	-1	3	4	3	-1	-1	-1	-1	1	-1	-4	946 65535 4	4	7	5	3	1	2	4	5	7	3	-1	-2	-4	-9	-16	1025 65535 -98	-106	-114	-119	-111	-86	-62	-31	15	72	128	165	170	135	65	-11	941 65534 17	-13	-20	-14	-3	2	3	6	7	3	3	4	4	3	3	941 59391 -2	-2	3	-3	-2	-1	2	3	-1	-4	-1	2	4	5	942 49022 2	-3	1	2	3	2	-3	-1	1	2	3	-3	-1	942 65499 1	1	-3	-4	-1	1	4	4	3	1	3	1	2	-1	941 32767 1	4	6	6	2	2	2	5	3	-1	-2	-5	-4	-5	-5	934 63471 1	-3	-1	-1	2	1	-1	-2	-4	-2	1	2	5	10	952 65535 -8	-9	-10	-10	-8	-2	3	2	2	3	4	5	8	10	8	6	963 65023 -5	-4	1	1	-1	-2	2	1	1	2	1	2	1	2	3	960 56823 2	1	1	2	1	-2	-1	-2	1	1	-1	-1	-2	955 65535 3	7	4	-2	-4	-1	1	2	1	-1	-2	-2	2	1	1	-2	955 12186 2	-1	-3	-1	1	2	-4	-3	2	953 60925 3	-2	-3	-1	1	-2	-1	1	3	3	1	1	1	959 65535 -3	-3	-7	-7	-4	-2	-1	-1	-1	-2	1	4	8	10	6	5	973 64507 -8	-3	-1	1	1	2	5	6	4	1	-3	1	1	4	965 65535 10	6	6	10	17	16	9	1	-2	-3	-3	-7	-8	-13	-13	-12	952 61411 2	2	1	-1	2	2	1	1	-1	-3	2	-1	939 65471 11	15	13	16	15	12	10	10	7	-7	-13	-18	-26	-26	-10	1048 65535 -95	-66	-30	22	80	129	159	160	128	62	-15	-78	-109	-122	-116	-107	948 63319 -1	2	-1	-1	2	3	3	-2	2	3	2	-2	948 23519 -2	2	1	2	1	3	2	-2	-3	1	3	1	949 65021 1	-2	-3	-1	1	1	-1	1	3	3	2	2	-1	1	948 55279 4	3	-1	1	2	1	-1	-1	-1	1	1	-1	-2	946 65503 -2	2	5	5	2	-1	-2	3	3	3	-1	-2	-4	1	-2	943 28671 -2	-3	-1	-2	-3	-5	-3	-3	1	3	3	3	5	7	964 65535 -10	-9	-10	-7	-4	-2	2	2	3	1	2	5	8	9	7	5	972 34295 -3	-3	2	3	4	3	1	2	2	1	969 65262 4	2	-1	3	4	3	-1	1	-2	1	-2	-2	-1	966 59377 5	3	4	1	2	2	1	-2	-1	1	-4	964 42490 -1	3	1	1	3	1	-1	-1	-2	1	963 59897 -1	-2	-1	3	-1	-1	2	2	1	1	5	966 65023 2	3	-1	-4	-2	-2	1	-1	-2	-2	-2	2	2	4	3	982 65535 -9	-5	-3	-2	-3	-4	-2	2	7	5	6	4	3	6	5	3	979 65535 6	4	4	4	5	4	6	10	9	4	1	-3	-6	-11	-13	-14	961 65527 4	2	1	-1	1	2	3	2	1	-2	-2	-1	1	1	1	947 65535 12	12	13	12	12	11	11	13	13	7	-3	-14	-18	-20	-27	-27	1051 65535 -115	-87	-51	-10	44	104	151	172	160	107	25	-54	-103	-118	-112	-102	953 64495 5	4	2	-1	-1	1	3	1	-2	-1	1	1	1	-2	953 65535 -1	1	3	2	-1	-5	-3	1	2	3	1	-1	-1	2	3	2	952 64888 2	-1	1	2	4	1	-1	1	2	3	1	955 64383 -1	1	-1	-4	-2	3	2	1	-1	1	3	1	3	1	955 63480 1	1	4	1	-3	-2	-3	2	2	-1	-1	-1	955 65469 -2	-1	-2	-2	3	3	1	-2	-4	2	2	1	1	4	966 65471 -5	-4	-5	-6	-3	-2	1	1	1	3	5	9	7	6	5	974 63231 -3	1	3	1	-2	-1	2	1	-2	-1	-1	1	1	1	971 48631 3	-1	3	2	3	-1	-2	-1	3	2	-2	-2	-2	967 57199 6	2	-1	1	1	3	1	-2	-1	3	-1	-1	-1	965 31679 1	4	2	1	-2	1	3	-1	-1	-2	-1	1	-3	962 24575 -1	1	2	3	2	-2	-1	-2	2	2	1	1	-2	2	969 65407 -4	-4	-5	-6	-6	-3	-1	-1	1	2	6	11	9	9	7	984 56302 -8	-3	1	1	1	2	6	4	3	-1	2	5	976 65503 8	6	5	5	4	6	8	10	6	2	-4	-9	-11	-13	-12	958 65527 5	4	3	1	1	3	5	3	1	-1	-1	-1	-2	-4	-2	944 65535 11	14	14	12	11	8	1	-6	-9	-15	-23	-31	-30	-13	16	46	1037 65535 -13	35	89	138	160	153	112	45	-33	-87	-108	-111	-102	-92	-89	-86	950 3839 -1	1	2	-1	-3	-1	1	3	4	1	1	951 46046 -1	1	1	-1	-1	1	1	-1	-3	1	2	950 16318 -1	1	2	2	-1	-1	-3	2	2	1	-2	-2	950 64863 2	2	-1	-3	-1	-1	1	1	1	1	2	3	1	950 48637 1	3	2	1	2	1	3	1	-2	-3	-4	-3	-2	949 65471 -2	-3	-2	-2	3	-1	-1	-3	-2	3	3	1	4	5	7	962 56063 -5	-4	-4	-4	3	2	1	-2	3	8	4	4	3	965 65087 -1	1	3	4	1	-3	-4	-1	-1	-2	2	3	5	962 64415 5	4	1	2	5	-1	-4	-3	1	-1	-2	-2	-3	957 64510 4	5	2	3	-3	2	2	-1	-3	-3	-1	2	1	1	954 64191 2	4	4	3	2	-1	2	-2	-3	-2	-2	2	-2	953 27347 -2	-2	3	1	-1	1	1	-1	3	957 57343 -1	-2	-3	-3	-3	-1	-3	-4	-6	-4	2	8	9	9	9	971 57343 -4	-4	-3	-2	-2	-2	2	6	4	2	4	1	4	6	3	967 65535 5	6	2	3	5	2	3	7	8	8	3	-2	-5	-9	-11	-12	946 65535 10	6	4	1	-1	2	4	4	2	-1	-2	-3	-1	-3	-5	-4	934 65535 9	13	16	13	11	8	8	10	8	7	-3	-9	-14	-16	-23	-34	1047 65535 -146	-138	-118	-102	-84	-68	-45	-14	31	83	123	147	150	129	68	-7	937 65519 40	-1	-16	-15	-7	2	5	1	1	1	-2	3	1	-2	-3	939 56975 -5	-1	2	3	2	-1	1	-1	1	3	5	937 65534 4	1	-1	-1	2	-1	-1	-3	-2	1	3	3	1	-2	-4	936 57070 1	2	-3	-1	1	2	3	2	-1	3	3	2	938 40959 -3	1	1	3	-1	1	2	1	-3	-2	-2	-1	2	2	932 65207 6	4	1	2	2	3	2	-1	2	1	-2	-3	-3	935 65087 -6	-5	-6	-8	-7	-4	-1	2	4	7	9	10	10	953 65263 -9	-4	-1	2	-1	-1	-1	2	1	2	1	4	5	7	956 57343 1	-1	1	4	2	1	1	-1	3	2	2	-3	-2	-2	-3	954 65375 1	1	-1	-4	-2	-1	1	2	1	1	3	1	-1	-2	948 65467 2	1	3	2	-1	-1	-1	1	2	-1	-3	-3	3	3	946 57343 2	2	1	1	1	1	-2	-1	1	2	2	-2	-1	-2	1	946 48831 4	-3	-2	-2	1	2	2	-2	1	3	5	2	1	955 65535 -8	-6	-2	-6	-7	-7	-6	-3	2	6	5	4	3	6	10	10	967 65102 -2	-3	-3	1	4	5	3	2	-2	-2	-1	959 63415 8	6	3	2	3	7	10	9	-2	-3	-6	-12	-12	943 63916 1	4	2	3	2	2	2	1	-3	-2	929 65407 13	12	11	12	13	14	11	7	-3	-6	-9	-16	-26	-24	-9	1036 65535 -90	-59	-25	21	77	131	166	166	127	55	-30	-87	-109	-114	-111	-104	938 49151 -2	2	3	1	3	-2	1	1	1	1	-1	-2	1	2	2	939 61181 2	-1	-1	3	2	1	-1	1	2	1	-1	-2	1	940 38847 2	-2	1	2	1	1	-1	1	2	2	1	2	942 42751 -2	1	-2	-1	3	3	2	1	2	3	3	2	940 64991 4	2	1	4	5	2	2	-2	1	3	-1	-3	-5	-2	938 65151 1	1	-3	-2	-2	-4	2	-3	-3	1	4	4	4	5	958 65279 -13	-11	-7	-7	-4	-3	-4	3	5	7	5	6	9	11	11	969 31871 -1	-1	-2	3	2	1	1	-1	-1	-1	-1	1	967 57306 5	2	-2	-2	-1	2	2	2	-1	1	3	1	966 64351 -1	3	4	3	1	-1	-2	2	-3	-2	-1	2	2	964 61227 2	1	-1	2	1	2	-3	2	1	-2	-1	964 65455 1	2	1	-2	-2	1	3	2	2	-1	1	2	1	-2	966 63727 -3	1	2	1	1	2	2	2	-2	-1	3	3	980 65535 -12	-11	-11	-6	-1	1	-1	1	1	5	4	8	6	6	7	12	987 64511 5	6	4	3	-1	1	-2	-2	-2	-2	2	3	1	-2	-3	975 65023 11	17	19	15	9	3	1	1	-5	-8	-9	-12	-10	-8	-10	963 65454 3	1	1	1	2	4	1	2	-1	3	2	-2	-2	947 65535 16	14	7	-2	-10	-11	-13	-24	-34	-33	-25	-8	9	27	42	59	1052 65535 -13	38	94	138	165	162	122	46	-33	-94	-117	-116	-103	-92	-89	-95	958 65016 1	-1	-2	-1	5	2	-1	-1	2	1	2	2	958 63175 1	2	3	1	3	-1	-1	-2	4	2	2	959 9195 2	-1	1	1	2	1	-2	3	2	961 60925 -1	-1	-1	3	2	-4	-2	2	2	4	2	2	2	962 65516 3	2	1	-2	-3	2	3	1	1	1	-2	2	1	963 43007 -3	-2	-2	-2	-1	2	2	1	-2	-1	3	6	8	976 65535 -6	-7	-6	-3	1	1	2	-1	-1	1	4	5	3	4	1	4	980 54203 2	1	-2	3	2	1	-3	-1	2	-1	-2	977 30957 -1	2	1	1	1	2	2	-2	-1	1	972 65263 4	3	1	1	4	2	3	-1	1	-3	-1	-3	-3	-1	969 65387 4	2	1	-1	-4	1	3	1	-1	-1	1	-1	-3	968 63455 -4	2	2	1	-2	-2	-1	1	2	-1	-1	1	2	3	972 62431 -2	-6	-5	-1	-3	-4	-3	-2	2	4	5	9	12	988 65535 -4	-3	-3	-4	-2	3	4	6	6	2	3	2	3	2	-2	-4	985 65535 -1	2	4	2	1	-1	-4	-2	1	5	9	7	-1	-4	-6	-8	966 65527 7	5	3	4	3	2	-2	-1	-2	1	2	1	-3	-3	-2	957 65535 7	9	8	6	5	8	9	8	7	4	-1	-5	-9	-14	-16	-24	1050 65535 -129	-130	-118	-99	-82	-67	-50	-22	18	67	111	138	149	133	79	3	955 65535 25	-16	-26	-15	-1	5	4	1	3	4	7	8	5	4	1	4	957 50175 3	3	1	1	1	2	-4	-3	1	3	2	-2	957 65531 1	1	3	1	2	-1	-2	-1	2	3	-1	-2	-1	3	2	956 64767 -2	-2	1	2	4	2	-1	1	3	2	3	2	-2	-1	959 30526 -1	2	1	1	2	2	-3	2	4	1	1	958 54271 -3	-2	1	-1	1	3	3	3	-1	-3	-2	2	4	966 63359 -4	-6	-5	-5	-2	-1	-2	2	5	7	6	5	3	4	971 65535 1	1	1	-3	-2	-1	4	4	4	3	-1	2	1	2	-1	-4	969 65117 -2	2	4	5	4	3	-1	1	-1	-2	-2	-1	962 65087 6	4	1	4	5	2	3	1	1	-1	-4	-3	-4	959 65515 3	2	2	-2	-2	-1	1	1	1	1	-1	1	-2	-4	957 43551 -3	1	1	-1	-1	-2	1	3	3	965 65535 -7	-8	-10	-6	-7	-3	-1	1	3	5	5	8	6	7	7	11	975 61951 4	6	3	2	-2	-3	-1	-3	-5	-1	1	4	4	955 65535 18	12	11	10	3	-1	-3	-2	-2	-4	-5	-7	-6	-7	-5	-4	947 40894 4	-1	3	4	1	-1	-2	1	4	2	1	-3	952 65535 -6	-11	-13	-23	-30	-30	-34	-43	-53	-49	-32	-4	20	56	103	156	1005 65535 150	180	183	148	72	-6	-61	-90	-88	-80	-70	-70	-71	-67	-67	-63	938 56062 4	2	-3	-1	1	1	2	1	1	1	-1	-1	937 49150 3	2	-2	-3	2	2	3	1	-1	-4	-1	-1	2	2	936 30463 3	4	1	-3	-5	3	2	1	-2	-2	1	3	4	937 61182 1	-3	-3	2	3	3	-1	-1	1	1	2	1	-1	932 65531 5	6	3	4	1	1	2	2	1	-3	-5	-4	-3	-2	-3	940 65535 -15	-13	-9	-8	-6	-6	-4	1	4	7	6	5	8	8	12	12	956 64510 -4	-5	-5	-2	-2	2	1	4	5	6	4	1	-2	-2	956 64511 2	5	1	-1	-2	1	2	1	2	-1	3	4	1	-1	-2	953 65438 -1	1	1	3	3	3	-1	1	3	-1	-3	-3	-1	949 61372 3	1	-1	2	-1	1	-1	-3	1	2	1	-1	950 28655 1	1	1	-2	-2	1	1	-1	-2	2	3	2	-1	958 65535 -10	-10	-7	-8	-8	-5	-6	-1	4	6	5	5	7	8	12	14	972 49053 1	2	1	1	2	2	-1	-3	-2	-3	-2	4	955 63487 18	11	8	4	-1	-1	-1	-4	-6	-8	-4	-4	-4	-2	-5	950 48635 -2	-1	1	1	1	2	3	3	2	1	-2	2	2	983 65535 -34	-36	-42	-48	-54	-57	-63	-74	-73	-50	-19	17	56	108	164	207	993 65535 215	197	135	49	-23	-64	-70	-62	-50	-47	-48	-46	-44	-43	-45	-46	947 64251 -2	1	1	1	1	-1	2	3	5	-1	-3	3	2	949 62666 1	-1	-2	-2	2	-4	-4	4	-1	948 64509 4	4	3	1	-2	1	2	2	-2	-1	-1	1	2	-1	948 47000 -2	2	3	-1	-1	-1	-2	-2	-3	943 62682 4	3	-1	-1	-1	-2	-1	2	1	-2	952 65407 -6	-5	-4	-8	-7	-3	-1	-2	1	3	5	8	11	11	11	968 65519 -2	-1	1	2	1	-2	-3	-1	2	2	2	-1	2	1	3	968 57223 1	1	2	3	3	3	1	-1	-5	-5	-1	965 64959 4	4	2	1	-3	-1	1	-1	-1	-1	2	2	-1	-3	961 64495 1	1	2	1	3	-2	-3	2	1	1	-1	-1	-1	1	960 61247 -1	-2	-4	2	2	-1	1	2	1	1	1	2	2	961 19823 1	-3	-2	1	-1	-2	2	5	7	5	978 61311 -7	-4	-3	-1	-2	-5	-2	2	4	4	2	4	7	7	981 62973 4	4	1	3	-1	-2	-3	-6	-2	1	6	6	-4	961 63487 12	12	8	2	-1	-2	-1	1	-5	-6	-5	-2	-2	-3	-6	953 56319 1	1	5	2	1	1	2	2	1	1	-2	-1	-4	-9	1009 65535 -72	-79	-83	-85	-92	-98	-92	-76	-49	-17	19	69	124	166	189	188	967 65535 195	117	31	-28	-50	-45	-33	-22	-20	-21	-23	-22	-19	-17	-19	-20	946 62433 -1	-1	1	1	-2	-2	1	2	1	2	947 48699 3	-3	1	3	2	3	3	2	-1	-1	1	948 65279 1	3	1	-1	-2	-2	1	1	-2	-4	-1	2	3	2	2	949 15833 2	3	1	1	-2	2	1	-2	-1	2	948 56914 3	2	-1	2	4	2	1	3	-3	951 65535 -3	-2	-4	-3	-5	-4	-1	-1	1	-3	-1	2	6	7	6	6	962 63479 -6	-4	-1	1	-1	-2	1	2	3	2	3	3	3	4	965 57299 2	-1	2	2	3	1	-1	-2	-1	3	-3	-3	961 65389 2	2	4	3	-1	1	1	1	-1	-1	2	2	-1	957 32507 3	5	3	3	1	-2	1	1	-1	-1	-2	1	3	956 61183 2	-1	-3	2	3	2	-1	2	2	4	3	1	-1	-1	956 61295 1	3	2	-1	2	1	2	-4	-2	2	2	3	1	966 65535 -11	-9	-6	-6	-4	-3	-3	1	4	7	6	6	5	4	6	5	978 61305 -5	-4	-2	3	4	2	3	-1	1	2	1	-2	965 65535 10	10	15	16	14	8	3	1	-1	-6	-10	-7	-10	-11	-10	-11	950 64767 1	1	6	1	3	1	2	2	2	-1	-3	-4	-3	1	930 65535 21	17	14	10	4	1	-2	-2	-7	-14	-23	-26	-22	-8	8	31	1037 65535 -54	-25	19	70	107	139	148	131	73	-4	-74	-109	-117	-107	-95	-93	944 32254 -1	1	4	5	3	-1	1	2	2	-1	-2	-4	-2	943 28670 -1	-2	1	1	1	-1	-1	1	1	2	2	1	-1	943 64885 3	6	5	2	-1	-2	3	-1	-1	-1	1	-2	942 65021 -1	-1	1	2	2	1	1	3	4	3	-1	-1	-2	2	943 65279 1	1	-2	-1	1	3	4	-1	2	2	1	1	-2	-3	-3	937 63479 2	3	3	1	-1	1	3	4	-3	-3	-1	1	-1	-1	947 64511 -9	-8	-5	-5	-4	-2	1	3	2	2	5	3	5	11	10	955 48617 3	-2	-1	2	1	-1	-1	-1	1	1	-2	953 65511 2	3	2	-1	-2	-2	1	1	2	1	-1	2	2	-4	948 15355 1	1	2	-1	1	5	3	2	2	-2	-1	-1	945 49015 3	-2	-1	1	1	1	1	1	3	3	-1	-2	-2	944 65503 -1	1	3	1	-2	-1	2	2	2	2	1	4	4	-1	-3	949 59263 -8	-5	-5	-1	-1	-2	1	3	1	2	6	8	12	964 65535 -5	-5	-5	-4	1	4	5	4	3	2	4	4	5	2	-1	-1	962 64511 1	1	2	4	2	2	2	-1	-2	-1	2	5	1	-4	-8	942 65407 7	6	5	4	2	1	-3	-3	1	-1	-3	-6	-6	-3	-1	931 65535 8	6	3	5	7	9	8	7	5	7	8	1	-7	-13	-24	-27	1026 65023 -124	-128	-118	-100	-75	-41	51	105	143	162	150	100	24	-49	-95	926 65535 -18	-18	-11	2	5	7	1	1	5	6	7	6	6	5	6	4	929 65534 2	1	-1	2	2	5	2	1	-2	-1	2	1	1	1	-3	930 65509 -1	2	1	1	-3	-1	-4	3	2	1	-1	3	-1	930 56223 -4	-1	2	1	-2	1	1	1	-1	-1	1	4	932 45015 4	-1	1	1	2	-1	-2	-4	2	1	-1	-2	926 63487 3	6	2	4	-1	1	3	2	-2	-3	-3	-3	-1	-2	-2	933 65535 -10	-10	-9	-6	-5	-4	-5	-2	1	4	6	5	5	10	11	16	953 65469 -3	-6	-6	-3	-2	2	2	-1	-1	4	4	5	5	4	955 64446 3	1	-1	3	-2	1	4	1	-1	-1	3	2	2	954 15231 2	2	1	-2	-1	2	1	-2	-2	-1	1	2	952 65535 3	2	-2	1	1	4	1	-2	-1	-1	1	2	-1	1	-2	-2	951 60348 1	2	2	-3	1	1	1	-2	1	2	3	953 65131 -3	-4	-1	3	1	2	-3	4	3	-2	2	3	961 65535 -5	-7	-10	-8	-5	-5	-1	-2	1	4	5	8	8	7	4	7	974 53246 -4	-2	-1	2	4	5	4	1	-1	-1	-1	1	1	965 65535 5	4	8	14	15	14	7	3	2	-1	-3	-7	-12	-12	-12	-11	949 57310 4	1	2	-1	4	3	2	-2	-1	1	1	1	-3	933 65535 17	19	18	14	8	2	-4	-8	-12	-23	-32	-30	-19	1	17	32	1072 65535 -94	-77	-55	-21	22	68	104	132	147	145	101	23	-66	-128	-149	-145	942 65469 -6	2	2	3	3	4	4	2	-1	-1	2	1	-1	1	943 63391 -1	2	1	1	-2	-2	2	2	1	-1	3	4	1	944 48098 -1	-1	1	2	-1	1	1	3	2	2	946 11674 -2	1	2	-1	-2	1	1	-1	944 63236 1	3	5	-1	-1	1	1	2	944 34467 -1	1	-1	-1	-1	2	6	958 65407 -9	-7	-7	-4	-2	-1	2	1	2	5	7	9	6	5	5	966 27647 2	2	-2	1	1	2	-1	-3	-2	1	1	1	1	963 65535 2	1	3	3	3	1	-1	-1	1	1	1	-1	-3	-1	-2	-3	961 12003 -2	1	2	1	-2	-1	1	-1	-2	959 31710 3	4	1	-2	2	2	2	1	-1	-1	1	1	958 65387 -1	-2	-2	1	1	1	-4	-2	2	1	-1	2	4	961 47039 -2	-2	-3	2	1	-1	-2	2	3	-1	1	-1	3	977 65023 -10	-6	-4	-5	-4	-3	-1	2	3	1	2	7	9	8	7	980 65335 2	2	4	2	3	-1	-3	-2	-3	-2	5	7	1	961 65519 14	10	3	3	3	2	-1	-3	-5	-4	-1	-1	-3	-6	-5	954 65007 1	4	3	1	-2	1	3	2	1	-1	1	2	-1	-3	997 65535 -52	-57	-64	-67	-70	-79	-90	-80	-56	-30	1	36	89	145	186	202	976 65535 204	145	61	-11	-46	-51	-41	-32	-29	-29	-26	-26	-23	-26	-29	-28	948 52735 1	1	-1	-1	2	2	-2	-1	2	2	4	3	2	949 57321 -2	-1	2	1	-2	-1	-1	2	2	1	-2	2	951 32510 -3	-2	-1	1	4	2	-1	-1	3	1	3	1	-2	951 32687 1	2	1	-2	-1	1	2	1	-2	2	2	2	2	950 65437 2	1	1	4	1	1	-1	-4	-2	-1	-2	-3	3	956 65279 -5	-9	-9	-6	-6	-3	1	1	2	5	9	7	9	7	8	965 27582 4	4	1	1	2	2	-4	-3	-2	1	1	963 40955 -1	1	2	-1	-2	-1	1	3	3	1	-1	-2	-2	957 65479 5	1	1	2	4	4	2	-1	-2	-1	-4	-5	-3	953 60405 3	5	3	-2	2	4	2	1	-1	-1	-1	-1	951 16135 1	2	3	1	-1	1	1	2	2	953 30207 -2	-4	-2	-1	-3	-4	-2	1	1	3	5	6	7	969 65533 -7	-5	-3	-2	-2	1	2	5	6	5	2	2	1	3	-3	961 65535 3	6	6	6	4	5	5	10	8	5	-2	-5	-9	-12	-10	-12	944 49015 4	-3	3	5	6	4	1	-2	-1	-1	-3	-5	-5	935 65535 7	9	7	5	3	3	4	9	9	7	3	-4	-9	-10	-14	-24	1025 65535 -123	-125	-114	-90	-62	-30	15	73	125	155	159	126	64	