-0.00
49158
1500966272.00	64.00	0.01	0.01	1.49
65535
-1.52	-1.54	-1.54	-1.49	-1.36	-1.13	-0.83	-0.48	-0.12	0.23	0.57	0.91	1.30	1.75	2.31	2.93	9.93
65535
-4.87	-4.27	-3.73	-3.25	-2.78	-2.25	-1.62	-0.79	0.16	1.11	1.95	2.63	3.21	3.83	4.72	6.03	41.30
65535
-23.39	-20.98	-18.40	-15.92	-13.72	-11.73	-9.62	-6.98	-3.49	1.24	6.85	12.80	18.53	23.67	28.28	32.84	142.40
65535
-63.06	-56.69	-48.64	-39.40	-29.78	-20.67	-12.63	-5.65	0.90	8.35	15.37	24.24	35.55	49.39	64.57	78.17	-75.35
65535
303.60	300.71	283.88	252.22	208.11	155.40	98.42	40.41	-17.09	-73.81	-129.88	-185.02	-238.39	-288.52	-334.48	-375.56	-381.73
65535
-104.77	-134.01	-155.50	-167.49	-168.23	-156.64	-132.48	-96.94	-52.15	-0.72	54.71	111.89	169.10	225.07	278.78	329.36	138.09
65535
-143.99	-102.51	-66.66	-36.74	-12.59	6.29	20.60	31.06	38.28	42.66	44.48	43.98	41.42	37.14	31.56	25.09	101.30
65535
54.85	47.51	40.00	32.39	24.72	17.03	9.39	1.86	-5.50	-12.62	-19.47	-26.05	-32.35	-38.35	-44.05	-49.44	21.26
65535
25.52	20.77	16.33	12.19	8.35	4.81	1.55	-1.43	-4.15	-6.59	-8.78	-10.72	-12.43	-13.91	-15.19	-16.29	1.22
65535
2.83	2.05	1.40	0.87	0.43	0.08	-0.21	-0.43	-0.61	-0.75	-0.85	-0.92	-0.96	-0.98	-1.00	-1.02	-0.00
65535
0.15	0.08	0.01	-0.05	-0.08	-0.07	-0.03	0.03	0.06	0.05	0.01	-0.05	-0.09	-0.09	-0.03	0.06	-0.04
65535
0.19	0.23	0.19	0.07	-0.08	-0.19	-0.19	-0.05	0.19	0.43	0.52	0.40	0.07	-0.34	-0.67	-0.72	-0.11
65535
-0.36	0.17	0.70	0.96	0.77	0.14	-0.68	-1.34	-1.50	-1.04	-0.13	0.82	1.34	1.11	0.18	-1.09	-4.23
65535
2.00	1.66	2.19	3.40	4.83	5.93	6.25	5.46	3.28	-0.32	-4.87	-9.13	-11.37	-9.95	-4.21	4.90	8.32
65535
2.55	11.04	15.73	16.08	13.12	8.68	4.31	0.72	-2.23	-4.99	-7.74	-10.16	-11.75	-12.23	-11.86	-11.25	-4.18
65535
1.49	1.01	-0.03	-1.16	-1.88	-1.91	-1.33	-0.44	0.36	0.80	0.78	0.50	0.20	0.13	0.44	1.12	3.29
65535
-5.45	-4.65	-4.25	-4.48	-5.29	-6.38	-7.19	-7.16	-5.86	-3.19	0.54	4.74	8.72	11.86	13.75	14.26	7.97
65535
8.85	7.21	5.04	2.69	0.46	-1.43	-2.84	-3.70	-4.02	-3.82	-3.23	-2.41	-1.56	-0.85	-0.37	-0.01	5.17
65535
3.14	3.60	4.18	4.81	5.26	5.27	4.66	3.37	1.59	-0.32	-2.04	-3.44	-4.68	-6.15	-8.23	-10.98	-18.50
65535
9.52	6.47	4.04	2.50	1.73	1.39	1.10	0.69	0.15	-0.47	-1.21	-2.25	-3.72	-5.47	-6.99	-7.47	5.74
65535
-30.39	-26.94	-21.58	-15.00	-8.16	-1.85	3.47	7.68	10.85	13.03	14.20	14.29	13.32	11.47	9.08	6.58	8.18
65535
1.90	0.24	-0.69	-0.88	-0.51	0.14	0.71	0.95	0.78	0.35	-0.06	-0.26	-0.21	-0.18	-0.55	-1.67	-9.88
65535
14.44	11.91	9.28	6.99	5.27	4.02	2.90	1.60	-0.06	-1.99	-4.04	-6.03	-7.98	-9.98	-12.11	-14.20	-0.42
65535
-25.28	-25.78	-24.58	-21.40	-16.44	-10.24	-3.58	2.85	8.50	13.07	16.39	18.39	19.03	18.39	16.64	14.08	5.94
65535
4.77	1.89	-0.51	-2.10	-2.77	-2.60	-1.89	-1.01	-0.27	0.20	0.46	0.67	0.89	1.05	0.91	0.24	-9.56
65535
14.45	12.67	10.65	8.64	6.77	5.01	3.28	1.46	-0.43	-2.34	-4.22	-6.14	-8.27	-10.79	-13.75	-16.92	-6.91
65535
-22.51	-24.55	-25.09	-23.71	-20.32	-15.16	-8.75	-1.80	4.97	10.98	15.82	19.36	21.65	22.87	23.25	23.04	10.74
65535
4.85	4.21	3.64	3.17	2.67	1.97	0.92	-0.41	-1.75	-2.75	-3.16	-2.99	-2.53	-2.21	-2.40	-3.26	-10.43
65535
16.49	14.71	12.75	10.63	8.28	5.65	2.83	0.09	-2.32	-4.21	-5.68	-7.06	-8.79	-11.19	-14.31	-17.83	-6.63
65535
-24.95	-27.34	-28.14	-26.89	-23.42	-17.91	-10.84	-2.93	5.00	12.23	18.19	22.58	25.33	26.59	26.65	25.86	11.27
65535
6.65	5.10	3.50	1.95	0.50	-0.78	-1.82	-2.54	-2.86	-2.79	-2.39	-1.78	-1.12	-0.60	-0.38	-0.61	-8.12
65535
17.96	16.52	14.47	11.95	9.18	6.33	3.59	1.03	-1.38	-3.68	-5.93	-8.25	-10.76	-13.62	-16.92	-20.55	-6.92
65535
-25.36	-28.29	-29.73	-29.01	-25.78	-20.22	-12.92	-4.72	3.55	11.26	18.01	23.54	27.67	30.25	31.17	30.51	10.12
65535
11.56	8.89	6.06	3.56	1.67	0.39	-0.45	-1.09	-1.73	-2.45	-3.20	-3.89	-4.41	-4.73	-4.93	-5.20	-13.88
65535
18.21	17.07	15.27	12.81	9.91	6.85	3.92	1.27	-1.11	-3.42	-5.91	-8.80	-12.07	-15.44	-18.37	-20.12	3.82
65535
-37.66	-35.11	-30.03	-22.81	-14.25	-5.43	2.65	9.25	14.11	17.32	19.12	19.70	19.13	17.46	14.85	11.73	6.47
65535
5.99	3.45	1.72	0.75	0.27	0.07	0.02	0.16	0.49	0.86	1.01	0.61	-0.54	-2.42	-4.85	-7.58	-20.56
65535
16.66	13.88	11.12	8.26	5.14	1.60	-2.45	-6.84	-11.07	-14.32	-15.63	-14.24	-9.88	-2.92	5.73	14.95	17.89
65535
-14.72	-7.05	-0.80	3.97	7.30	9.22	9.76	8.99	7.09	4.38	1.28	-1.82	-4.53	-6.61	-7.92	-8.48	0.03
65535
9.46	9.93	10.50	10.85	10.72	9.89	8.25	5.82	2.76	-0.67	-4.22	-7.69	-11.05	-14.42	-18.03	-22.13	-15.01
65535
-11.79	-16.90	-21.91	-26.00	-28.22	-27.77	-24.25	-17.83	-9.18	0.71	10.83	20.38	28.86	35.98	41.58	45.56	18.07
65535
14.74	15.27	14.20	11.84	8.54	4.82	1.10	-2.22	-4.89	-6.83	-8.06	-8.76	-9.14	-9.46	-10.02	-11.08	-25.42
65535
30.64	28.07	24.79	21.01	17.05	13.16	9.48	5.93	2.21	-2.08	-7.40	-13.95	-21.51	-29.40	-36.49	-41.51	-35.27
65535
-33.57	-31.95	-27.10	-19.98	-11.88	-4.01	2.73	7.92	11.52	13.69	14.70	14.87	14.63	14.61	15.56	18.22	47.34
65535
-59.51	-52.33	-43.26	-33.01	-22.30	-11.72	-1.62	7.81	16.27	23.44	28.84	32.09	32.96	31.48	27.96	22.91	18.77
65535
45.51	39.18	32.90	26.85	21.01	15.14	8.94	2.22	-5.08	-12.76	-20.31	-26.95	-31.75	-33.84	-32.69	-28.40	26.48
65535
-29.33	-21.19	-12.90	-5.40	0.79	5.56	9.00	11.20	12.16	11.85	10.27	7.69	4.52	1.27	-1.61	-3.93	12.38
65535
8.43	7.06	5.86	4.69	3.52	2.43	1.53	0.86	0.32	-0.27	-1.13	-2.41	-4.20	-6.41	-8.89	-11.45	-19.19
65535
17.66	15.38	13.30	11.35	9.37	7.10	4.29	0.77	-3.41	-7.89	-12.01	-14.90	-15.72	-13.87	-9.21	-2.14	15.20
65535
-27.90	-18.79	-10.24	-3.04	2.43	6.11	8.22	9.06	8.91	8.00	6.53	4.77	3.04	1.66	0.81	0.49	12.31
65535
3.40	3.51	3.57	3.53	3.46	3.45	3.43	3.27	2.79	1.83	0.37	-1.54	-3.81	-6.34	-9.04	-11.84	-21.99
65535
19.69	17.02	14.50	12.06	9.58	6.90	3.87	0.40	-3.47	-7.53	-11.37	-14.35	-15.72	-14.82	-11.33	-5.38	12.71
65535
-32.30	-23.62	-14.98	-7.17	-0.63	4.42	7.98	10.12	10.97	10.73	9.70	8.19	6.49	4.82	3.31	2.01	12.33
65535
1.36	0.67	0.39	0.55	1.07	1.82	2.61	3.19	3.37	2.98	1.96	0.33	-1.73	-4.00	-6.24	-8.29	-16.91
65535
19.09	17.31	15.37	13.10	10.42	7.43	4.32	1.34	-1.37	-3.81	-6.20	-8.80	-11.87	-15.39	-18.99	-21.94	-2.38
65535
-37.90	-37.03	-33.51	-27.45	-19.49	-10.54	-1.57	6.56	13.27	18.21	21.33	22.79	22.91	22.12	20.86	19.46	13.02
65535
2.76	1.60	0.59	-0.29	-1.02	-1.49	-1.62	-1.37	-0.77	0.03	0.81	1.31	1.32	0.72	-0.48	-2.13	-7.15
65535
16.14	14.14	12.11	10.03	7.82	5.42	2.91	0.43	-1.84	-3.80	-5.52	-7.18	-9.00	-11.16	-13.75	-16.78	-10.02
65535
-17.24	-20.58	-23.43	-25.10	-24.90	-22.31	-17.22	-10.05	-1.63	7.01	14.93	21.50	26.41	29.65	31.32	31.58	10.46
65535
10.16	8.32	5.95	3.48	1.28	-0.43	-1.64	-2.44	-2.98	-3.33	-3.47	-3.38	-3.11	-2.81	-2.69	-2.87	-6.60
65535
13.68	12.91	11.93	10.68	9.02	6.82	4.13	1.25	-1.46	-3.70	-5.50	-7.10	-8.93	-11.34	-14.42	-17.96	-7.94
65535
-20.16	-23.08	-24.74	-24.61	-22.34	-17.95	-11.81	-4.57	2.94	9.95	15.85	20.36	23.42	25.16	25.83	25.70	8.99
65535
8.10	7.12	5.99	4.79	3.54	2.22	0.80	-0.64	-2.03	-3.22	-4.09	-4.59	-4.72	-4.59	-4.39	-4.34	-9.97
65535
14.32	13.54	12.23	10.45	8.37	6.19	4.07	2.12	0.28	-1.59	-3.75	-6.40	-9.64	-13.32	-16.98	-19.89	0.92
65535
-32.11	-31.17	-27.69	-21.95	-14.71	-6.99	0.24	6.34	11.10	14.61	17.08	18.57	19.01	18.24	16.22	13.25	5.76
65535
5.05	2.00	-0.21	-1.37	-1.66	-1.46	-1.14	-0.86	-0.59	-0.21	0.28	0.75	0.94	0.61	-0.34	-1.80	-12.89
65535
15.08	13.21	11.37	9.59	7.85	6.11	4.34	2.54	0.71	-1.24	-3.46	-6.16	-9.45	-13.24	-17.06	-20.14	-1.10
65535
-33.38	-32.52	-29.16	-23.64	-16.70	-9.18	-1.79	4.98	10.80	15.45	18.70	20.46	20.81	20.01	18.49	16.60	7.24
65535
6.32	4.50	2.97	1.83	1.14	0.87	0.84	0.80	0.53	-0.05	-0.86	-1.77	-2.68	-3.62	-4.74	-6.11	-14.61
65535
14.16	12.52	11.02	9.72	8.50	7.10	5.29	3.00	0.35	-2.44	-5.22	-7.98	-10.73	-13.36	-15.49	-16.44	5.25
65535
-35.37	-32.11	-26.58	-19.35	-11.33	-3.47	3.51	9.21	13.50	16.38	17.85	17.94	16.67	14.24	11.11	7.88	6.46
65535
3.97	2.20	1.45	1.44	1.76	2.01	2.00	1.78	1.44	1.04	0.49	-0.41	-1.80	-3.65	-5.77	-7.88	-20.18
65535
16.87	15.22	13.68	12.06	10.21	8.11	5.83	3.44	0.90	-1.99	-5.43	-9.45	-13.69	-17.38	-19.45	-18.99	4.44
65535
-40.16	-33.93	-25.76	-16.76	-8.02	-0.28	6.05	10.88	14.22	16.12	16.65	15.97	14.39	12.29	10.12	8.26	10.83
65535
0.52	-0.33	-0.78	-1.00	-1.07	-0.90	-0.43	0.37	1.35	2.19	2.57	2.30	1.36	-0.13	-1.96	-4.03	-17.46
65535
21.99	19.49	16.79	13.95	11.08	8.27	5.53	2.78	-0.16	-3.40	-7.02	-10.98	-15.08	-18.86	-21.66	-22.71	4.77
65535
-43.60	-39.50	-32.84	-24.30	-14.90	-5.70	2.47	9.13	14.16	17.70	19.96	21.08	21.17	20.29	18.58	16.26	11.54
65535
6.85	4.21	1.84	-0.05	-1.34	-1.98	-2.01	-1.55	-0.81	-0.02	0.58	0.77	0.44	-0.52	-2.12	-4.32	-14.04
65535
18.59	15.65	12.65	9.81	7.20	4.82	2.58	0.45	-1.60	-3.52	-5.34	-7.19	-9.31	-11.88	-14.89	-18.02	-2.56
65535
-32.14	-33.54	-33.03	-30.19	-25.01	-17.85	-9.38	-0.45	8.08	15.50	21.30	25.32	27.63	28.49	28.20	27.04	14.57
65535
8.15	6.05	3.87	1.92	0.43	-0.49	-0.88	-0.95	-0.94	-1.05	-1.34	-1.76	-2.24	-2.78	-3.48	-4.48	-11.62
65535
20.28	18.41	16.13	13.57	10.80	7.81	4.62	1.26	-2.07	-5.18	-7.91	-10.30	-12.60	-15.16	-18.16	-21.44	-2.75
65535
-33.28	-35.06	-34.77	-31.84	-26.22	-18.37	-9.17	0.38	9.36	17.07	23.05	27.06	29.07	29.24	27.90	25.52	7.62
65535
12.22	9.13	6.11	3.35	0.93	-1.02	-2.42	-3.21	-3.47	-3.38	-3.12	-2.87	-2.75	-2.80	-3.08	-3.62	-12.24
65535
15.43	14.37	13.11	11.70	10.15	8.43	6.47	4.19	1.52	-1.59	-5.19	-9.20	-13.34	-17.02	-19.38	-19.57	9.22
65535
-38.46	-33.07	-25.41	-16.46	-7.33	0.98	7.83	12.94	16.25	17.80	17.69	16.06	13.22	9.62	5.84	2.49	5.74
65535
3.49	2.11	1.68	1.89	2.28	2.50	2.36	1.89	1.23	0.53	-0.16	-0.91	-1.94	-3.43	-5.48	-8.03	-26.79
65535
21.62	18.61	15.57	12.52	9.34	5.88	2.05	-2.17	-6.59	-10.81	-14.23	-16.12	-15.82	-12.90	-7.34	0.45	14.88
65535
-31.96	-22.14	-12.65	-4.18	2.77	7.92	11.14	12.48	12.18	10.57	8.12	5.32	2.61	0.40	-1.01	-1.52	11.75
65535
1.91	2.74	3.69	4.39	4.64	4.47	4.05	3.50	2.88	2.04	0.81	-1.01	-3.48	-6.55	-10.11	-14.01	-26.51
65531
20.12	15.86	11.56	7.26	2.92	-1.52	-6.06	-10.49	-14.30	-16.68	-16.79	-14.03	-8.29	9.96	20.52	23.21
65535
-19.05	-10.08	-2.73	2.84	6.61	8.69	9.20	8.37	6.52	4.08	1.55	-0.67	-2.38	-3.57	-4.38	-4.94	11.27
65535
6.66	6.57	6.75	7.09	7.38	7.32	6.67	5.39	3.50	1.10	-1.72	-4.86	-8.20	-11.55	-14.68	-17.49	-25.69
65535
17.00	14.77	12.63	10.47	8.23	5.85	3.18	0.07	-3.56	-7.52	-11.28	-13.98	-14.72	-12.78	-7.91	-0.47	14.65
65535
-31.66	-21.91	-12.61	-4.55	1.89	6.63	9.75	11.39	11.67	10.73	8.81	6.27	3.61	1.30	-0.29	-1.01	13.80
65535
-0.06	0.64	1.68	2.84	3.93	4.78	5.25	5.19	4.52	3.23	1.39	-0.88	-3.50	-6.42	-9.61	-12.97	-22.42
65535
19.85	16.63	13.75	11.27	9.05	6.80	4.15	0.87	-3.06	-7.32	-11.34	-14.36	-15.64	-14.60	-11.00	-4.97	12.31
65535
-31.74	-22.65	-13.44	-5.03	1.88	6.91	10.07	11.56	11.71	10.78	9.02	6.66	4.05	1.63	-0.21	-1.18	10.71
65535
0.33	0.86	1.67	2.45	3.04	3.46	3.78	4.03	4.09	3.70	2.60	0.58	-2.31	-5.80	-9.50	-13.00	-21.86
65535
16.57	14.18	12.32	10.76	9.14	7.03	4.07	0.09	-4.72	-9.74	-13.99	-16.33	-15.85	-12.09	-5.26	3.83	16.29
65535
-24.17	-14.20	-5.48	1.35	6.06	8.73	9.65	9.18	7.69	5.58	3.26	1.09	-0.67	-1.93	-2.75	-3.32	9.84
65535
2.64	2.18	1.78	1.60	1.79	2.34	3.09	3.77	4.02	3.59	2.34	0.30	-2.39	-5.55	-8.98	-12.45	-24.82
65535
18.92	16.02	13.61	11.63	9.82	7.81	5.19	1.70	-2.64	-7.49	-12.12	-15.59	-16.94	-15.46	-10.89	-3.61	14.63
65535
-33.91	-24.03	-14.58	-6.39	0.10	4.85	8.04	9.99	10.95	11.07	10.42	9.05	7.06	4.70	2.33	0.33	12.48
65535
1.14	0.54	0.58	1.01	1.57	2.02	2.23	2.17	1.88	1.42	0.86	0.18	-0.76	-2.27	-4.63	-7.99	-24.74
65535
25.04	20.44	16.03	12.27	9.34	7.03	4.89	2.47	-0.51	-4.10	-8.10	-12.18	-15.84	-18.55	-19.65	-18.53	4.75
65535
-44.25	-37.78	-29.13	-19.28	-9.49	-0.95	5.55	9.82	12.24	13.49	14.28	15.09	16.09	17.20	18.19	18.91	33.77
65535
-9.70	-9.48	-9.26	-8.80	-7.90	-6.43	-4.39	-1.95	0.67	3.20	5.40	7.14	8.50	9.66	10.88	12.39	55.40
65535
-7.40	-5.33	-3.17	-1.02	1.20	3.73	6.85	10.72	15.09	19.08	21.10	19.04	10.76	-5.11	-28.42	-57.14	-36.64
65535
4.44	-23.37	-44.55	-56.52	-58.55	-51.56	-37.63	-19.48	0.02	18.18	32.90	43.01	48.40	49.89	48.71	46.06	-15.53
65535
21.69	18.35	15.30	12.80	10.97	9.55	7.90	5.19	0.99	-4.43	-10.10	-14.78	-17.61	-18.58	-18.53	-18.72	-68.18
65535
32.39	28.96	23.83	17.64	11.15	4.97	-0.51	-5.12	-8.75	-11.42	-13.25	-14.47	-15.38	-16.17	-16.80	-17.00	-41.57
65535
-42.90	-40.80	-36.98	-31.35	-24.10	-15.66	-6.64	2.26	10.34	17.05	22.12	25.60	27.82	29.35	30.86	33.10	94.39
65535
-99.13	-93.07	-83.87	-70.86	-53.81	-33.17	-10.25	12.95	34.09	51.13	62.65	68.03	67.35	61.18	50.43	36.33	33.17
65535
81.63	65.58	50.91	38.55	28.53	20.08	12.00	3.15	-7.00	-18.22	-29.64	-39.96	-47.92	-52.61	-53.68	-51.47	-4.20
65535
-9.50	-3.68	2.22	7.29	10.97	12.98	13.24	11.80	8.90	4.89	0.30	-4.36	-8.67	-12.41	-15.60	-18.36	-25.05
65535
0.04	-2.15	-4.02	-5.43	-6.23	-6.32	-5.72	-4.49	-2.78	-0.76	1.43	3.65	5.80	7.72	9.19	9.99	-13.57
65535
-1.65	-2.93	-5.34	-8.60	-12.18	-15.32	-17.18	-17.06	-14.50	-9.47	-2.40	5.92	14.52	22.50	29.23	34.41	17.26
65535
7.23	9.52	10.66	10.79	9.97	8.27	5.80	2.79	-0.38	-3.39	-6.00	-8.11	-9.79	-11.20	-12.47	-13.68	-19.05
65535
21.45	20.27	19.00	17.46	15.48	12.90	9.80	6.25	2.33	-2.03	-6.98	-12.61	-18.67	-24.47	-28.99	-31.20	-9.79
65535
-39.71	-35.96	-29.78	-22.05	-13.65	-5.25	2.74	9.99	16.12	20.59	22.88	22.70	20.13	15.74	10.40	5.08	-19.80
65535
10.55	7.30	5.43	4.81	5.03	5.58	5.89	5.48	4.04	1.50	-1.84	-5.49	-8.86	-11.52	-13.34	-14.55	-31.99
65535
-3.48	-5.07	-7.50	-10.76	-14.34	-17.40	-19.01	-18.45	-15.37	-9.87	-2.38	6.46	15.97	25.43	34.18	41.60	10.47
65535
4.77	8.37	10.06	10.20	9.31	7.84	5.98	3.69	0.82	-2.59	-6.18	-9.31	-11.30	-11.77	-10.83	-9.02	-1.63
65535
5.03	6.53	7.30	7.33	6.70	5.45	3.55	0.98	-2.12	-5.39	-8.23	-9.93	-9.88	-7.65	-3.13	3.42	38.93
65535
-29.09	-20.27	-11.41	-3.18	3.97	9.74	13.93	16.36	16.85	15.30	11.80	6.76	0.81	-5.31	-10.88	-15.41	18.54
65535
1.67	-0.46	-1.65	-2.20	-2.37	-2.32	-2.07	-1.52	-0.56	0.80	2.33	3.58	3.97	3.05	0.66	-2.92	32.59
65535
-21.12	-24.94	-27.53	-28.17	-26.42	-22.25	-15.99	-8.29	0.04	8.21	15.63	21.99	27.21	31.31	34.29	36.02	37.62
65535
31.26	29.90	26.92	22.58	17.38	11.86	6.48	1.47	-3.21	-7.76	-12.36	-17.00	-21.50	-25.57	-28.94	-31.54	-17.40
65535
21.46	19.62	17.47	14.59	10.73	5.90	0.35	-5.46	-10.93	-15.34	-18.00	-18.27	-15.76	-10.43	-2.68	6.69	8.06
65535
-8.83	0.58	8.60	14.63	18.41	19.85	18.94	15.79	10.69	4.18	-2.95	-9.90	-16.03	-21.05	-24.96	-27.99	-38.61
65535
16.35	14.60	13.34	12.38	11.36	9.73	7.05	3.21	-1.51	-6.46	-10.86	-14.05	-15.67	-15.57	-13.73	-10.11	-2.26
65535
-41.06	-33.96	-25.57	-16.58	-7.87	-0.22	5.85	10.20	12.96	14.39	14.79	14.44	13.67	12.93	12.71	13.35	-4.88
65535
17.55	19.64	21.40	21.81	20.03	15.75	9.39	2.01	-5.09	-10.77	-14.48	-16.41	-17.37	-18.45	-20.63	-24.44	-19.03
65535
-15.61	-21.81	-27.85	-32.57	-34.95	-34.20	-29.94	-22.18	-11.44	1.32	14.78	27.49	38.17	45.95	50.57	52.31	27.35
65535
5.51	3.87	1.98	0.69	0.63	2.07	4.85	8.30	11.39	12.87	11.66	7.10	-0.79	-11.32	-23.33	-35.44	-21.66
65535
2.62	-6.23	-12.37	-15.59	-15.90	-13.64	-9.40	-4.03	1.47	6.20	9.58	11.46	12.10	11.93	11.34	10.44	-13.14
65535
0.66	-1.10	-3.34	-5.77	-7.83	-8.98	-8.78	-7.15	-4.38	-1.00	2.40	5.39	7.78	9.57	10.89	11.72	-21.43
65535
20.14	19.21	16.78	12.61	6.80	-0.11	-7.24	-13.53	-17.93	-19.68	-18.43	-14.31	-7.91	-0.10	8.05	15.58	-7.14
65535
7.31	11.26	12.84	12.11	9.45	5.49	1.01	-3.23	-6.63	-8.85	-9.82	-9.65	-8.55	-6.72	-4.36	-1.59	-5.03
65535
-0.71	2.33	5.07	7.06	7.75	6.61	3.44	-1.44	-7.04	-11.92	-14.50	-13.64	-9.01	-1.19	8.53	18.62	18.72
65535
3.94	11.05	15.77	17.96	17.73	15.31	11.07	5.63	-0.22	-5.67	-10.13	-13.37	-15.50	-16.86	-17.88	-18.88	-9.12
65535
7.75	6.24	4.50	2.73	1.20	0.15	-0.41	-0.72	-1.20	-2.22	-3.78	-5.36	-6.08	-5.04	-1.67	3.96	15.58
65535
-13.50	-5.67	1.75	7.95	12.47	15.09	15.74	14.42	11.31	6.74	1.28	-4.43	-9.76	-14.34	-18.06	-20.98	-13.15
65535
5.52	3.95	3.13	3.13	3.88	5.06	6.20	6.75	6.25	4.43	1.29	-2.87	-7.43	-11.47	-13.93	-13.86	9.51
65535
-33.36	-27.24	-18.89	-9.52	-0.40	7.42	13.29	16.92	18.24	17.36	14.49	10.11	4.91	-0.32	-4.84	-8.22	-3.09
65535
2.23	1.13	0.76	0.84	1.18	1.70	2.32	2.99	3.55	3.79	3.39	2.02	-0.53	-4.23	-8.56	-12.64	5.32
65535
-23.80	-24.26	-21.93	-16.93	-9.95	-2.03	5.72	12.30	16.95	19.21	18.88	16.13	11.40	5.46	-0.78	-6.42	-6.34
65535
0.85	-2.01	-3.40	-3.71	-3.42	-2.90	-2.34	-1.74	-0.98	0.06	1.34	2.70	3.82	4.38	4.15	3.20	26.27
65535
-30.82	-32.06	-32.42	-31.16	-27.70	-21.83	-13.78	-4.21	5.92	15.47	23.49	29.21	32.18	32.30	29.88	25.57	54.98
65535
-8.37	-13.42	-17.25	-19.11	-18.74	-16.32	-12.35	-7.44	-2.11	3.27	8.48	13.38	17.83	21.61	24.44	26.10	106.15
65535
-24.60	-25.00	-25.52	-25.11	-22.65	-17.27	-8.74	2.35	14.51	25.64	33.47	36.06	32.14	21.24	3.57	-20.15	-113.77
65535
171.05	138.72	104.50	70.39	38.45	10.40	-12.74	-30.72	-44.02	-53.50	-60.08	-64.47	-67.07	-68.02	-67.41	-65.51	-133.05
65535
-43.73	-41.73	-41.29	-42.79	-45.37	-46.94	-44.78	-36.60	-21.61	-0.95	22.57	45.36	63.97	75.99	80.36	77.48	-175.11
65535
111.00	99.00	85.69	72.38	59.14	44.86	27.97	7.36	-16.78	-42.57	-66.71	-85.06	-93.59	-89.44	-71.65	-41.61	165.60
65535
-343.32	-299.38	-253.65	-207.20	-158.94	-106.85	-50.01	9.90	68.54	120.34	160.88	188.69	205.56	215.32	221.99	228.16	260.26
65535
140.01	146.26	151.07	153.02	150.39	140.93	122.08	91.68	49.21	-3.48	-62.20	-121.51	-176.32	-223.45	-262.43	-295.24	-259.80
65535
194.95	164.91	132.92	98.96	64.46	31.57	2.21	-22.53	-42.62	-58.91	-72.64	-84.83	-95.66	-103.95	-107.14	-101.69	-2.04
65535
-341.83	-309.76	-263.31	-205.38	-141.18	-76.88	-17.89	32.52	73.77	107.47	136.14	161.89	185.45	206.05	221.90	231.07	95.10
65535
135.05	127.77	112.75	91.65	66.73	40.50	15.29	-7.25	-26.42	-42.50	-56.37	-69.09	-81.25	-92.82	-103.09	-110.92	17.71
65535
-37.67	-36.98	-30.74	-18.92	-2.60	15.89	33.25	45.89	51.00	47.41	35.90	18.77	-1.12	-21.36	-40.51	-58.23	-247.50
65535
190.30	173.94	156.88	137.66	114.42	85.03	47.98	3.42	-45.88	-94.31	-134.43	-158.95	-162.86	-145.09	-108.70	-59.41	107.28
65535
-358.31	-300.64	-243.37	-186.16	-127.27	-65.17	-0.14	64.78	123.82	169.87	196.67	201.13	184.64	152.81	113.44	73.89	47.46
65535
98.91	70.75	48.98	32.54	20.55	12.28	6.64	1.82	-4.49	-13.97	-26.73	-40.77	-52.54	-58.06	-54.54	-41.32	141.55
65535
-114.30	-88.73	-62.68	-39.28	-20.04	-4.88	7.31	17.82	27.33	35.64	41.96	45.38	45.40	42.26	36.77	30.04	65.59
65535
98.81	91.35	83.09	73.13	60.73	45.71	28.58	10.35	-7.89	-25.27	-41.29	-55.88	-69.38	-82.56	-96.64	-112.82	-43.80
65535
-22.30	-43.04	-63.15	-78.86	-86.36	-83.16	-69.08	-46.29	-18.47	10.45	37.39	60.73	80.12	95.90	108.45	117.69	-48.51
65535
127.66	127.88	122.13	110.00	91.90	69.02	42.93	15.17	-13.01	-40.60	-66.68	-90.13	-109.62	-123.73	-131.29	-131.64	-146.40
65535
-27.05	-14.48	1.88	19.28	34.87	46.25	51.91	51.34	44.78	32.89	16.45	-3.74	-26.69	-51.26	-76.16	-100.30	-354.13
65535
84.62	62.96	41.59	19.32	-4.73	-30.50	-56.45	-79.39	-94.85	-98.17	-85.87	-56.84	-12.80	42.23	103.22	165.70	212.26
65535
-339.58	-280.85	-224.08	-168.21	-112.29	-56.05	-0.37	52.58	99.57	136.97	161.71	172.30	169.23	154.64	131.56	102.95	134.07
65535
149.44	116.53	84.01	53.43	26.24	3.51	-14.40	-27.83	-37.55	-44.43	-49.12	-52.03	-53.31	-53.08	-51.67	-49.72	37.62
65535
48.16	47.77	44.33	37.18	26.53	13.53	0.05	-11.97	-21.07	-26.68	-29.12	-29.29	-28.12	-26.24	-23.90	-21.19	7.59
65535
11.64	13.99	15.17	14.62	12.19	8.32	3.77	-0.73	-4.76	-8.18	-10.93	-12.85	-13.57	-12.65	-9.99	-6.04	-8.91
65535
14.73	18.12	19.59	18.61	15.27	10.05	3.57	-3.52	-10.57	-16.70	-20.78	-21.71	-18.81	-12.25	-3.01	7.42	38.18
65535
-29.39	-20.05	-11.73	-4.20	2.58	8.17	11.73	12.59	10.70	6.93	2.79	-0.23	-1.24	-0.01	3.21	8.13	88.97
65535
-36.08	-27.66	-17.30	-5.36	7.21	18.95	28.12	33.12	32.88	27.26	17.11	4.25	-8.93	-19.93	-26.55	-27.11	113.03
65535
-44.58	-30.50	-9.60	16.27	43.85	68.96	87.25	95.25	91.08	74.52	46.69	9.44	-35.19	-85.02	-137.73	-190.75	-345.43
65535
216.97	170.66	129.98	94.92	64.54	37.55	12.90	-9.96	-31.33	-51.50	-70.87	-89.48	-106.49	-119.70	-125.96	-122.18	-116.23
65535
-335.67	-308.18	-270.99	-227.22	-179.93	-131.21	-81.94	-32.08	18.96	71.69	125.94	180.51	232.80	279.30	316.40	341.56	172.14
65535
65.81	67.36	60.71	49.15	35.40	21.28	7.91	-4.01	-13.96	-21.75	-27.77	-33.04	-38.89	-46.33	-55.63	-66.24	41.05
65535
54.01	43.92	35.01	26.97	18.98	10.09	-0.22	-11.64	-22.91	-32.11	-37.23	-36.86	-30.72	-19.76	-5.94	8.44	50.00
65535
12.34	22.20	28.35	30.68	29.44	25.07	18.25	9.75	0.43	-8.83	-17.19	-24.00	-28.88	-31.74	-32.88	-32.91	0.29
65535
17.17	17.34	17.03	16.31	15.37	14.27	12.86	10.66	7.20	2.19	-4.26	-11.75	-19.56	-26.79	-32.47	-35.52	22.55
65535
-57.22	-52.36	-43.13	-30.26	-15.22	0.04	13.64	24.16	30.80	33.37	32.16	27.77	21.02	12.95	4.75	-2.47	5.47
65535
9.16	5.76	4.13	3.62	3.53	3.38	3.02	2.53	1.97	1.32	0.39	-1.12	-3.43	-6.73	-11.08	-16.49	4.58
65535
-21.86	-28.48	-34.49	-38.60	-39.51	-36.27	-28.77	-17.77	-4.67	8.98	21.81	32.86	41.49	47.19	49.59	48.55	17.26
65535
31.64	25.05	17.27	9.58	3.09	-1.61	-4.48	-5.88	-6.41	-6.68	-7.11	-7.91	-9.10	-10.63	-12.40	-14.47	-10.86
65535
11.08	7.69	3.13	-2.74	-9.67	-16.87	-23.05	-26.75	-26.73	-22.36	-13.84	-2.11	11.43	25.20	37.75	47.88	21.15
65535
22.76	25.98	25.48	21.69	15.44	7.83	0.13	-6.51	-11.31	-13.99	-14.87	-14.63	-14.10	-13.95	-14.47	-15.52	-14.34
65535
18.77	17.83	17.30	16.94	16.15	14.18	10.37	4.48	-3.06	-11.20	-18.42	-23.13	-24.08	-20.67	-13.12	-2.34	25.00
65535
-28.99	-15.84	-3.52	6.97	14.96	20.03	21.97	20.78	16.79	10.68	3.41	-3.91	-10.31	-15.17	-18.23	-19.68	-1.66
65535
6.76	7.29	8.09	8.82	9.25	9.31	8.94	8.10	6.60	4.20	0.66	-4.11	-9.92	-16.16	-21.87	-25.92	13.07
65535
-41.94	-39.68	-33.66	-24.38	-12.95	-0.91	10.14	18.94	24.74	27.28	26.67	23.20	17.35	9.82	1.60	-6.17	-2.62
65535
3.33	-0.59	-2.14	-1.77	-0.29	1.52	3.10	4.18	4.73	4.72	4.05	2.61	0.23	-3.17	-7.60	-12.90	-0.40
65535
-20.96	-26.80	-31.79	-34.85	-34.96	-31.39	-24.09	-13.70	-1.49	11.05	22.51	31.73	37.94	40.72	39.98	36.05	7.73
65535
21.55	13.89	6.29	-0.04	-4.32	-6.36	-6.49	-5.40	-3.79	-2.26	-1.16	-0.64	-0.74	-1.54	-3.18	-5.85	-14.31
65535
12.34	7.30	1.22	-5.52	-12.35	-18.44	-22.84	-24.53	-22.74	-17.24	-8.50	2.31	13.68	24.12	32.60	38.58	7.37
65535
20.26	21.08	19.50	15.82	10.52	4.42	-1.56	-6.53	-9.97	-11.77	-12.19	-11.70	-10.76	-9.76	-8.93	-8.43	-9.70
65535
8.75	8.45	7.66	6.22	3.88	0.47	-3.93	-8.75	-13.02	-15.55	-15.34	-11.91	-5.45	3.22	12.91	22.35	11.43
65535
9.30	15.18	18.35	18.67	16.36	12.03	6.50	0.71	-4.61	-8.96	-12.13	-14.08	-14.93	-14.88	-14.23	-13.35	-13.87
65535
12.69	13.00	12.77	12.01	10.81	9.15	6.82	3.53	-0.92	-6.29	-11.76	-16.05	-17.79	-15.96	-10.35	-1.65	9.23
65535
-14.33	-3.79	5.47	12.50	16.84	18.37	17.17	13.58	8.18	1.86	-4.41	-9.77	-13.62	-15.80	-16.43	-15.78	-7.95
65535
2.99	5.15	7.49	9.57	10.99	11.47	10.91	9.28	6.57	2.71	-2.19	-7.77	-13.22	-17.38	-19.06	-17.45	5.55
65535
-26.05	-18.57	-9.78	-1.07	6.49	12.23	15.88	17.34	16.62	13.81	9.22	3.44	-2.70	-8.34	-12.79	-15.74	-11.82
65535
0.13	-0.23	0.23	1.27	2.71	4.30	5.76	6.70	6.82	5.88	3.82	0.72	-3.26	-7.74	-12.03	-15.13	2.60
65535
-30.37	-28.05	-22.41	-14.13	-4.63	4.41	11.54	15.97	17.63	16.94	14.55	11.09	7.12	3.19	-0.21	-2.69	-8.56
65535
7.08	6.67	6.90	7.30	7.53	7.40	6.84	5.86	4.44	2.48	-0.19	-3.66	-7.91	-12.67	-17.28	-20.85	5.34
65535
-36.22	-34.71	-29.90	-22.13	-12.40	-2.10	7.44	15.17	20.44	23.01	22.88	20.32	15.77	10.00	3.93	-1.45	-2.15
65535
2.15	0.19	0.07	1.27	3.07	4.72	5.76	6.04	5.67	4.81	3.48	1.45	-1.67	-6.19	-12.07	-18.74	-3.66
65535
-23.73	-28.86	-31.55	-31.16	-27.54	-21.09	-12.54	-2.85	6.95	15.83	22.92	27.56	29.46	28.74	25.95	21.99	10.98
65535
3.28	0.06	-1.66	-1.76	-0.60	1.14	2.71	3.59	3.61	2.91	1.79	0.48	-0.94	-2.60	-4.68	-7.38	-3.87
65535
4.04	-0.17	-5.04	-10.23	-15.06	-18.62	-19.97	-18.41	-13.86	-6.91	1.34	9.64	16.92	22.52	26.12	27.68	9.42
65535
14.02	11.95	8.59	4.54	0.53	-2.82	-5.03	-5.96	-5.71	-4.64	-3.21	-1.95	-1.30	-1.54	-2.73	-4.70	-14.65
65535
16.92	14.34	11.87	9.53	7.19	4.56	1.40	-2.44	-6.73	-10.91	-14.05	-15.19	-13.52	-8.83	-1.52	7.43	12.78
65535
-10.67	-2.10	4.87	9.75	12.43	12.99	11.60	8.57	4.39	-0.27	-4.62	-7.97	-9.91	-10.41	-9.87	-8.83	-3.83
65535
8.80	9.48	9.73	9.61	9.12	8.22	6.80	4.84	2.42	-0.30	-3.14	-6.12	-9.34	-12.92	-16.78	-20.43	4.84
65535
-31.74	-32.45	-30.49	-25.62	-18.23	-9.22	0.26	9.06	16.26	21.25	23.69	23.53	20.99	16.59	11.03	5.13	-1.53
65535
6.05	1.66	-1.32	-2.78	-2.84	-1.80	-0.13	1.60	2.88	3.29	2.73	1.38	-0.35	-2.06	-3.54	-4.84	-15.92
65535
8.15	6.32	3.80	0.53	-3.30	-7.36	-11.15	-14.01	-15.27	-14.29	-10.75	-4.74	3.08	11.72	20.05	27.15	7.26
65535
9.22	12.40	13.52	12.76	10.38	6.78	2.51	-1.78	-5.47	-8.11	-9.53	-9.82	-9.33	-8.48	-7.72	-7.40	-12.02
65535
11.62	10.82	9.72	8.61	7.59	6.64	5.53	4.02	1.92	-0.81	-4.07	-7.64	-11.10	-13.83	-15.05	-14.00	6.38
65535
-28.67	-22.37	-14.30	-5.63	2.37	8.73	12.90	14.85	14.81	13.16	10.30	6.60	2.49	-1.64	-5.35	-8.20	-4.34
65535
0.87	0.55	1.40	2.91	4.37	5.17	4.99	3.94	2.40	0.86	-0.45	-1.64	-2.99	-4.83	-7.29	-10.24	-8.12
65535
-9.73	-13.08	-16.32	-19.14	-21.04	-21.31	-19.30	-14.69	-7.73	0.80	9.72	17.85	24.28	28.54	30.59	30.61	7.08
65535
13.81	11.00	7.45	3.64	0.08	-2.76	-4.51	-5.00	-4.42	-3.20	-1.91	-1.10	-1.10	-2.03	-3.80	-6.17	-16.49
65535
14.70	11.93	9.30	6.92	4.72	2.45	-0.15	-3.24	-6.69	-9.96	-12.21	-12.56	-10.41	-5.67	1.27	9.59	11.27
65535
-9.41	-1.14	5.88	11.07	14.06	14.73	13.16	9.75	5.14	0.10	-4.63	-8.51	-11.21	-12.73	-13.23	-12.98	-5.42
65535
4.42	5.31	6.11	6.56	6.49	5.87	4.80	3.51	2.19	0.92	-0.45	-2.24	-4.78	-8.34	-12.77	-17.56	-3.04
65535
-24.23	-26.98	-27.34	-24.88	-19.72	-12.55	-4.37	3.72	10.80	16.22	19.69	21.15	20.76	18.90	16.06	12.79	3.58
65535
3.00	0.35	-1.50	-2.38	-2.25	-1.19	0.50	2.37	3.84	4.45	3.99	2.52	0.41	-2.04	-4.63	-7.43	-16.99
65535
9.95	6.16	1.67	-3.37	-8.58	-13.36	-16.95	-18.56	-17.58	-13.84	-7.61	0.34	9.01	17.42	24.78	30.53	5.31
65535
12.03	13.65	13.07	10.49	6.46	1.78	-2.64	-5.99	-7.87	-8.29	-7.59	-6.35	-5.13	-4.37	-4.28	-4.91	-17.95
65535
17.15	15.61	13.93	12.16	10.17	7.65	4.28	-0.03	-5.01	-9.98	-14.02	-16.20	-15.86	-12.80	-7.25	0.22	10.53
65535
-19.67	-10.83	-2.54	4.48	9.69	12.77	13.62	12.45	9.66	5.80	1.50	-2.61	-6.04	-8.43	-9.75	-10.14	-11.13
65535
11.65	11.86	11.77	11.18	10.08	8.61	6.90	5.04	2.90	0.30	-2.98	-7.03	-11.64	-16.28	-20.13	-22.22	5.68
65535
-38.46	-34.77	-28.10	-19.19	-9.22	0.56	9.05	15.55	19.67	21.31	20.59	17.83	13.56	8.54	3.59	-0.51	-1.95
65535
4.32	2.92	2.65	3.01	3.52	3.81	3.73	3.30	2.60	1.69	0.56	-0.96	-3.03	-5.77	-9.20	-13.14	-1.29
65535
-17.87	-21.51	-24.02	-24.73	-23.14	-19.10	-12.90	-5.22	3.03	10.88	17.51	22.31	24.95	25.40	23.80	20.58	7.90
65535
7.19	2.81	-0.89	-3.24	-3.92	-3.10	-1.36	0.50	1.80	2.19	1.80	1.01	0.19	-0.54	-1.47	-3.04	-5.44
65535
7.69	3.89	-0.90	-6.22	-11.41	-15.70	-18.31	-18.52	-15.92	-10.61	-3.28	4.95	12.87	19.53	24.43	27.48	8.77
65535
14.56	14.17	12.22	8.90	4.69	0.28	-3.56	-6.26	-7.62	-7.81	-7.24	-6.30	-5.29	-4.32	-3.48	-2.89	-6.04
65535
12.10	11.62	10.29	7.97	4.68	0.54	-4.11	-8.72	-12.54	-14.69	-14.45	-11.50	-6.10	0.96	8.50	15.41	8.89
65535
5.95	9.58	11.32	11.24	9.50	6.26	1.91	-2.87	-7.20	-10.18	-11.21	-10.27	-7.86	-4.81	-1.88	0.44	-0.46
65535
11.38	12.32	12.67	12.26	10.81	8.06	4.03	-0.89	-6.01	-10.48	-13.55	-14.64	-13.47	-10.05	-4.64	2.28	29.35
65535
-19.69	-11.50	-3.51	3.81	9.92	14.30	16.48	16.13	13.31	8.44	2.35	-3.89	-9.10	-12.34	-13.10	-11.54	18.58
65535
2.30	5.70	8.35	9.59	9.50	8.69	7.98	7.86	8.20	8.20	6.59	2.24	-5.36	-15.65	-27.01	-37.16	-12.18
65535
-13.12	-14.98	-11.91	-5.05	3.61	11.96	18.39	21.97	22.45	19.86	14.42	6.48	-3.32	-13.99	-24.20	-32.54	-43.97
65535
-6.12	-8.03	-6.72	-3.13	1.48	5.83	9.07	10.76	10.92	9.68	7.28	3.85	-0.46	-5.53	-11.28	-17.63	-54.02
65535
-14.41	-21.42	-27.98	-32.99	-35.09	-33.11	-26.58	-16.11	-3.28	9.80	21.25	29.86	35.34	38.06	38.70	37.91	8.22
65535
-25.96	-27.89	-29.41	-29.70	-28.07	-24.22	-18.42	-11.34	-3.71	3.94	11.43	18.95	26.86	35.53	45.36	56.59	100.96
65535
-23.50	-9.87	3.76	15.86	24.66	28.72	27.41	21.27	11.93	1.60	-7.62	-14.38	-18.36	-20.12	-20.66	-20.76	90.81
65535
-10.49	-9.81	-7.98	-4.70	-0.24	4.38	7.77	8.62	6.26	1.13	-5.17	-10.10	-10.78	-4.93	8.29	27.81	29.21
65535
112.02	133.05	147.33	150.43	139.89	115.76	80.74	39.21	-3.91	-44.55	-80.37	-110.87	-136.92	-159.86	-180.96	-201.02	-225.33
65535
34.01	14.76	-4.29	-22.65	-39.04	-51.46	-57.80	-56.62	-47.84	-32.72	-13.39	8.21	30.89	54.40	78.98	104.63	21.28
65535
-115.94	-90.84	-68.21	-49.18	-34.02	-22.16	-12.49	-3.78	5.05	14.88	26.33	39.71	54.84	70.87	86.19	98.77	91.07
65535
36.89	38.98	35.31	27.20	16.79	6.27	-2.77	-9.69	-14.66	-18.16	-20.63	-22.08	-22.20	-20.67	-17.49	-13.17	70.91
65535
11.54	15.28	17.36	17.27	14.90	10.46	4.42	-2.44	-9.00	-13.98	-16.30	-15.55	-12.39	-8.53	-6.12	-6.85	36.57
65535
23.12	16.04	8.18	1.48	-2.84	-4.71	-5.00	-4.91	-5.39	-6.69	-8.31	-9.16	-8.09	-4.38	1.71	8.90	-62.16
65535
113.98	117.45	116.62	110.85	100.01	83.94	62.24	34.58	1.55	-34.75	-70.58	-101.59	-124.19	-136.66	-139.37	-134.12	-135.73
65535
-49.65	-35.27	-19.46	-4.53	6.97	12.81	12.14	6.25	-1.54	-7.14	-7.44	-1.60	8.61	19.77	28.29	31.75	-124.99
65535
18.68	11.36	0.64	-11.67	-23.79	-34.03	-40.69	-42.19	-37.37	-26.09	-9.49	9.91	28.80	44.05	53.82	58.02	77.30
65535
-144.01	-145.17	-145.15	-141.77	-133.42	-118.89	-97.05	-67.03	-28.66	16.87	66.65	116.36	161.28	197.62	223.46	238.97	272.83
65535
50.22	50.32	45.42	36.74	25.47	13.38	2.91	-3.54	-4.94	-2.63	-0.23	-2.42	-13.10	-33.87	-63.71	-100.06	-129.21
65535
261.78	219.15	174.18	126.60	77.15	28.28	-16.15	-52.31	-77.98	-93.45	-101.10	-104.26	-105.92	-108.03	-111.47	-116.45	-259.05
65535
7.12	0.25	-5.99	-10.11	-10.85	-7.93	-2.22	4.46	10.12	13.23	13.07	9.70	3.86	-3.15	-9.35	-12.21	23.08
65535
-291.10	-279.29	-257.32	-224.86	-182.87	-133.33	-78.77	-21.82	34.90	89.01	138.45	181.69	218.02	247.55	270.94	288.78	196.28
65535
127.73	133.15	130.29	118.18	97.44	70.79	42.37	16.21	-5.55	-23.45	-40.60	-61.35	-89.48	-126.59	-171.08	-218.12	0.93
65535
-65.42	-96.77	-112.37	-111.91	-99.30	-80.72	-61.64	-44.07	-25.99	-2.98	28.42	67.86	110.17	147.15	170.82	176.76	-38.18
65535
204.65	181.04	151.42	121.01	92.03	63.82	34.28	1.90	-32.89	-67.51	-98.19	-121.37	-134.93	-138.67	-133.91	-122.74	-140.23
65535
-5.23	12.68	31.27	48.43	61.57	68.04	65.91	54.78	35.98	12.12	-13.83	-39.27	-62.15	-80.67	-92.88	-96.75	10.96
65535
-242.07	-226.54	-203.22	-175.13	-145.04	-114.14	-81.61	-45.36	-3.48	44.14	95.38	146.29	192.33	229.77	256.52	272.18	115.78
65535
172.80	169.27	158.01	140.14	117.02	90.36	62.22	34.37	7.52	-19.11	-47.75	-81.39	-122.53	-171.80	-226.88	-282.27	-5.40
65535
-209.07	-241.61	-252.79	-240.51	-206.87	-156.93	-96.67	-31.14	35.94	101.28	160.62	208.36	238.59	247.54	235.60	207.72	-60.12
65535
226.38	189.61	156.58	127.53	99.57	68.79	32.74	-8.15	-50.63	-89.70	-120.30	-138.78	-143.80	-136.34	-118.92	-94.57	65.20
65535
-191.27	-160.51	-129.62	-100.85	-76.45	-57.83	-44.38	-32.89	-18.44	3.73	35.91	76.66	121.14	162.83	195.78	216.14	130.62
65535
157.09	149.98	130.85	101.75	65.37	25.30	-14.10	-48.26	-73.50	-87.87	-91.50	-86.26	-75.15	-61.67	-49.56	-42.49	-10.31
65535
97.22	85.61	63.44	32.94	-1.46	-33.94	-58.72	-71.57	-70.90	-58.24	-37.75	-15.01	4.64	17.67	23.18	22.87	2.77
65535
6.79	4.40	4.73	8.15	13.66	19.64	24.57	27.43	27.45	23.91	16.00	3.20	-14.18	-34.65	-55.86	-75.25	-109.13
65535
20.83	9.00	0.26	-6.99	-14.20	-21.92	-29.49	-35.12	-36.47	-31.61	-19.90	-2.65	17.16	35.98	51.42	63.66	194.68
65535
-228.28	-212.25	-187.81	-152.85	-108.04	-56.61	-3.21	47.19	90.07	121.78	139.87	143.55	134.10	114.93	90.86	66.72	43.21
65535
197.25	180.22	165.27	148.96	127.80	99.60	64.30	23.92	-18.17	-58.40	-94.04	-123.93	-148.42	-169.13	-188.09	-207.15	-239.70
65535
55.54	34.15	12.61	-7.35	-23.62	-34.23	-37.83	-34.08	-24.05	-10.21	3.97	14.79	19.49	17.40	10.48	3.00	-273.82
65535
34.37	40.50	56.51	79.24	101.95	116.28	114.92	94.02	54.44	1.89	-54.47	-104.16	-137.92	-149.95	-139.07	-108.50	-38.48
65535
-299.68	-248.75	-196.85	-147.79	-103.47	-64.27	-29.41	3.03	35.65	70.64	108.08	144.86	174.88	191.33	190.01	171.80	123.75
65535
-19.14	-48.53	-68.91	-74.17	-63.30	-39.82	-9.64	21.14	47.68	66.50	75.05	71.44	55.05	27.79	-5.17	-35.97	51.99
65535
15.22	9.84	18.90	35.74	50.26	53.22	40.45	14.69	-15.77	-40.85	-53.17	-50.89	-37.92	-21.78	-10.14	-7.81	20.96
65535
15.49	0.65	-16.50	-31.54	-41.95	-47.61	-49.92	-50.22	-48.33	-42.03	-27.91	-3.45	30.81	70.26	107.40	134.88	199.96
65535
-29.99	-27.34	-29.53	-28.41	-18.29	1.62	27.17	51.57	68.39	73.59	65.90	45.85	14.76	-25.42	-71.50	-118.33	114.05
65535
-73.25	-101.44	-112.86	-107.43	-88.97	-63.35	-35.82	-9.01	17.09	43.41	69.69	92.88	107.74	108.72	92.60	59.96	-109.88
65535
239.07	188.63	139.42	96.84	63.93	41.22	26.93	17.28	7.20	-8.66	-34.18	-70.21	-113.93	-159.64	-200.94	-232.95	-315.02
65535
-48.44	-58.26	-59.27	-53.69	-43.39	-30.09	-15.85	-2.97	6.78	13.26	18.27	24.69	35.12	50.58	70.34	92.96	65.52
65535
-263.05	-236.33	-206.33	-172.08	-133.76	-92.84	-51.73	-12.60	23.43	56.82	89.25	122.90	159.33	198.70	239.46	278.75	288.01
65535
90.70	117.14	133.13	137.15	128.68	108.55	79.14	44.11	7.31	-28.39	-61.80	-93.30	-123.73	-153.23	-180.78	-204.72	-34.28
65535
98.64	85.05	75.86	69.21	62.56	53.08	38.05	15.86	-12.79	-44.14	-72.15	-90.52	-95.10	-85.29	-63.74	-34.55	82.83
65535
-118.54	-84.23	-51.20	-22.58	-2.14	7.23	5.59	-2.84	-10.73	-10.61	1.53	24.09	50.20	70.58	77.25	66.33	-54.68
65535
176.37	137.06	91.96	46.58	4.99	-29.96	-56.05	-71.57	-75.75	-69.55	-55.91	-39.27	-24.22	-14.03	-9.83	-10.83	-170.64
65535
100.60	93.85	85.17	73.93	59.41	41.69	22.01	2.33	-15.46	-30.43	-42.81	-53.82	-64.93	-77.21	-90.61	-103.66	-125.22
65535
-158.90	-161.64	-153.65	-132.76	-99.67	-58.47	-15.79	21.36	48.22	64.19	72.87	80.25	91.74	109.83	133.40	159.09	170.44
65535
-112.11	-90.35	-70.33	-49.90	-27.45	-3.37	19.93	39.22	52.01	57.55	56.72	51.01	41.47	28.54	12.55	-5.47	52.33
65535
94.65	79.45	69.21	64.54	64.03	64.65	62.79	55.50	41.10	19.36	-8.91	-42.32	-79.39	-119.09	-160.92	-204.67	-186.77
65535
-10.50	-54.35	-92.83	-120.06	-130.41	-120.76	-92.33	-50.79	-4.62	37.86	71.17	93.89	107.96	116.59	122.44	126.72	9.97
65535
-67.10	-65.20	-63.07	-58.79	-50.76	-38.65	-23.72	-8.19	6.02	18.25	29.20	40.20	52.21	65.03	77.34	87.18	69.61
65535
33.25	34.09	30.29	22.77	12.77	1.48	-9.90	-20.10	-27.77	-31.65	-30.95	-25.60	-16.23	-4.09	9.28	22.36	84.92
65535
18.39	26.86	31.62	32.32	29.11	22.63	13.97	4.36	-5.11	-13.50	-20.24	-25.04	-27.89	-29.12	-29.28	-29.10	15.75
65535
39.90	38.88	36.84	33.78	29.79	24.88	18.84	11.48	2.72	-7.22	-17.87	-28.47	-38.09	-45.61	-49.90	-49.92	25.90
65535
-55.32	-46.08	-33.63	-19.93	-7.10	3.28	10.63	15.28	18.07	19.74	20.55	20.33	18.78	15.87	11.93	7.55	-16.75
65535
45.76	41.26	36.28	30.37	23.34	15.43	7.28	-0.54	-7.71	-14.22	-20.21	-25.66	-30.24	-33.35	-34.45	-33.33	33.54
65535
-80.57	-76.28	-71.51	-66.60	-61.22	-54.29	-44.33	-29.94	-10.46	13.52	39.94	65.53	86.40	98.87	100.42	90.47	-7.73
65535
111.86	85.50	57.01	30.54	8.98	-6.44	-16.07	-21.21	-23.48	-24.44	-25.31	-27.02	-30.12	-34.63	-40.01	-45.13	-37.77
65535
-18.71	-19.88	-18.30	-14.42	-9.20	-3.76	0.91	4.13	5.63	5.57	4.66	4.07	5.20	9.28	16.91	27.86	39.96
65535
-36.67	-22.72	-9.47	1.99	11.05	17.41	20.96	21.60	19.44	14.86	8.66	1.81	-4.73	-10.38	-15.01	-18.87	1.77
65535
15.88	12.63	9.61	7.01	5.06	3.83	3.16	2.75	2.29	1.49	0.07	-2.29	-6.01	-11.37	-18.25	-25.83	7.02
65535
-37.89	-42.14	-42.30	-37.72	-28.91	-17.41	-5.25	5.78	14.57	20.87	25.02	27.62	29.16	29.85	29.76	29.03	52.97
65535
-17.95	-18.59	-17.89	-15.10	-9.90	-2.81	4.94	11.72	16.18	17.60	16.12	12.49	7.72	2.74	-1.79	-5.54	-74.59
65535
118.94	115.82	111.27	103.43	90.56	71.71	47.28	19.02	-10.52	-38.89	-64.35	-86.14	-104.00	-117.71	-126.63	-129.80	-84.20
65535
-116.74	-106.52	-90.43	-70.45	-49.04	-28.49	-10.27	5.27	18.64	30.80	42.56	54.24	65.64	76.25	85.50	92.98	-1.93
65535
16.28	19.95	21.77	21.78	19.98	16.42	11.25	4.74	-2.62	-10.16	-16.98	-22.10	-24.59	-23.84	-19.65	-12.26	45.73
65535
-49.91	-37.94	-24.63	-10.62	3.31	16.08	26.30	32.65	34.22	30.93	23.54	13.42	2.07	-9.32	-20.09	-30.04	-19.18
65535
25.65	17.14	9.46	2.98	-1.93	-5.02	-6.36	-6.31	-5.42	-4.25	-3.24	-2.68	-2.80	-3.76	-5.57	-7.95	4.49
65535
-33.86	-34.87	-33.54	-29.20	-21.93	-12.58	-2.53	6.85	14.59	20.20	23.64	25.01	24.45	22.12	18.27	13.37	-5.92
65535
18.33	12.94	8.04	3.94	0.80	-1.38	-2.74	-3.44	-3.73	-3.81	-3.80	-3.80	-3.93	-4.38	-5.46	-7.50	-33.49
65535
16.81	12.25	6.57	0.25	-5.96	-11.08	-14.15	-14.49	-11.87	-6.81	-0.48	5.45	9.25	9.57	5.88	-1.22	-8.06
65535
-35.62	-44.14	-49.67	-50.12	-44.40	-32.76	-16.86	0.60	16.60	28.62	35.42	37.43	36.67	35.97	37.99	44.22	69.01
65535
-22.64	-10.23	1.79	10.99	15.89	16.34	13.20	7.90	1.93	-3.50	-7.53	-9.51	-9.10	-6.40	-2.02	2.84	65.69
65535
10.07	11.81	10.81	7.34	2.41	-2.66	-6.66	-8.86	-9.08	-7.71	-5.40	-2.91	-0.83	0.50	0.93	0.32	11.13
65535
53.01	49.54	44.13	36.70	27.48	17.08	6.26	-4.19	-13.68	-21.78	-28.14	-32.54	-34.86	-35.15	-33.58	-30.29	10.06
65535
-24.27	-17.45	-8.50	2.62	15.47	28.80	40.62	48.48	49.98	43.52	28.75	7.05	-18.68	-44.69	-67.34	-84.28	-124.38
65535
39.30	32.98	28.49	23.25	15.80	6.33	-3.76	-12.65	-19.03	-22.50	-23.44	-22.42	-19.76	-15.27	-8.46	1.22	39.96
65535
-150.14	-133.60	-113.28	-89.13	-61.46	-31.18	0.01	29.85	55.72	75.20	86.50	88.92	82.95	70.30	53.56	35.70	23.23
65279
36.10	23.07	13.99	8.43	5.32	3.44	1.84	-2.14	-4.43	-6.73	-9.03	-11.61	-14.84	-19.06	-24.34	-15.56
65535
8.32	1.80	-4.59	-10.37	-15.15	-18.61	-20.39	-20.04	-17.18	-11.70	-3.90	5.44	15.20	24.12	31.19	35.78	10.05
65535
12.22	12.05	10.25	7.48	4.35	1.34	-1.20	-3.06	-4.17	-4.68	-4.85	-4.98	-5.29	-5.82	-6.49	-7.19	-11.68
65535
13.88	13.14	12.15	10.66	8.50	5.61	2.02	-2.11	-6.46	-10.50	-13.49	-14.58	-13.12	-8.92	-2.36	5.56	2.49
65535
-0.54	6.49	11.70	14.77	15.77	14.93	12.49	8.72	3.95	-1.36	-6.60	-11.21	-14.77	-17.14	-18.39	-18.74	-19.03
65535
3.11	3.92	4.98	5.98	6.51	6.17	4.75	2.39	-0.44	-3.10	-5.10	-6.23	-6.61	-6.44	-5.72	-4.19	-0.37
65535
-19.97	-15.43	-9.31	-2.34	4.33	9.54	12.57	13.28	12.07	9.54	6.28	2.69	-0.94	-4.41	-7.57	-10.32	-23.04
65535
9.98	7.83	5.70	3.48	1.27	-0.68	-2.09	-2.75	-2.69	-2.15	-1.52	-1.17	-1.42	-2.43	-4.31	-7.04	-8.99
65535
-24.45	-28.03	-31.08	-32.68	-31.92	-28.22	-21.52	-12.37	-1.72	9.25	19.42	27.95	34.37	38.58	40.83	41.59	33.90
65535
-1.42	-1.85	-2.15	-2.06	-1.53	-0.65	0.42	1.49	2.38	2.97	3.10	2.70	1.75	0.30	-1.60	-3.87	18.23
65535
9.20	6.32	3.23	-0.01	-3.17	-5.95	-7.97	-8.81	-8.24	-6.28	-3.28	0.14	3.34	5.84	7.46	8.22	12.11
65535
14.40	13.88	12.78	11.01	8.54	5.52	2.19	-1.05	-3.86	-5.97	-7.36	-8.20	-8.81	-9.58	-10.83	-12.69	-29.45
65535
26.40	23.46	20.23	16.84	13.35	9.81	6.19	2.49	-1.36	-5.38	-9.63	-14.02	-18.31	-21.96	-24.16	-23.97	-4.02
65535
-46.09	-39.40	-29.81	-18.49	-6.99	3.28	11.36	16.90	20.06	21.18	20.54	18.32	14.67	9.93	4.70	-0.23	-20.17
65535
11.94	9.32	8.00	7.60	7.58	7.49	6.99	5.94	4.26	1.89	-1.17	-4.86	-9.09	-13.71	-18.59	-23.66	-21.60
65535
-27.41	-32.33	-36.37	-38.66	-38.25	-34.44	-27.08	-16.67	-4.27	8.82	21.31	32.25	41.08	47.52	51.48	53.00	19.19
65535
11.43	8.73	4.84	0.68	-2.77	-4.79	-5.18	-4.25	-2.64	-1.02	0.12	0.57	0.34	-0.50	-1.87	-3.75	-6.92
65535
19.94	16.93	13.27	8.86	3.67	-2.16	-8.25	-13.84	-17.96	-19.63	-18.18	-13.50	-6.11	2.97	12.51	21.41	17.15
65535
4.75	10.18	13.39	14.31	13.00	9.72	5.04	-0.22	-5.10	-8.75	-10.75	-11.10	-10.30	-9.00	-7.86	-7.25	-4.85
65535
14.77	14.41	13.95	13.52	13.04	12.21	10.61	7.89	3.92	-1.18	-7.02	-12.95	-18.12	-21.64	-22.68	-20.75	13.76
65535
-34.42	-26.93	-17.84	-8.25	0.73	8.25	13.77	17.04	18.03	16.90	13.94	9.59	4.41	-0.89	-5.54	-8.87	3.03
65535
0.22	0.21	1.35	2.92	4.19	4.75	4.63	4.16	3.71	3.36	2.83	1.57	-0.97	-5.07	-10.63	-17.18	-1.62
65535
-19.28	-25.31	-29.70	-31.56	-30.25	-25.60	-17.92	-8.09	2.65	12.94	21.64	27.96	31.53	32.41	30.93	27.64	8.05
65535
13.58	8.82	4.39	0.94	-1.16	-1.81	-1.30	-0.28	0.54	0.58	-0.32	-1.88	-3.63	-5.09	-6.17	-7.17	-15.46
65535
14.91	12.56	9.02	4.38	-0.99	-6.52	-11.60	-15.52	-17.62	-17.32	-14.31	-8.62	-0.77	8.38	17.74	26.22	7.44
65535
10.01	14.29	15.85	14.77	11.58	7.05	2.20	-2.08	-5.24	-7.15	-8.11	-8.66	-9.30	-10.33	-11.69	-13.16	-20.53
65535
13.49	12.37	11.24	9.65	7.17	3.65	-0.60	-4.90	-8.42	-10.52	-11.00	-10.06	-8.04	-5.20	-1.59	2.84	58.70
65535
-71.06	-64.66	-56.73	-46.39	-32.58	-14.84	5.98	27.26	45.22	56.15	57.84	50.52	36.54	19.29	1.78	-14.26	-44.84
65535
75.04	62.14	50.10	38.87	28.67	19.66	11.57	3.67	-4.86	-14.43	-24.71	-34.80	-43.66	-50.73	-56.15	-60.38	64.18
65535
-172.50	-173.49	-170.25	-160.24	-141.54	-113.72	-77.97	-36.61	7.69	52.45	95.38	134.13	166.11	188.81	200.55	201.18	147.18
65535
109.30	93.92	75.37	56.54	39.13	23.74	10.15	-2.20	-13.81	-25.00	-35.86	-46.39	-56.56	-66.39	-76.06	-85.96	-70.80
65535
121.19	108.40	92.64	73.25	50.34	24.99	-0.82	-24.79	-44.78	-59.37	-67.87	-70.23	-66.85	-58.46	-46.17	-31.50	10.53
65535
-97.56	-83.16	-70.44	-59.24	-48.58	-37.36	-24.80	-10.80	4.27	19.89	35.69	51.32	66.12	78.75	87.12	88.85	-97.99
65535
190.62	174.81	150.99	121.51	89.14	56.20	24.06	-6.80	-36.17	-63.51	-87.72	-107.33	-121.13	-128.61	-130.02	-125.96	-81.50
65535
-133.39	-119.42	-100.49	-77.07	-50.58	-23.36	1.84	22.75	38.27	48.69	55.32	59.85	63.63	67.42	71.35	75.18	7.41
65535
-10.29	-7.37	-4.98	-2.94	-1.10	0.63	2.22	3.54	4.45	4.88	4.85	4.38	3.44	1.95	-0.28	-3.31	-3.81
65535
4.13	-0.08	-4.31	-8.01	-10.75	-12.13	-11.95	-10.20	-7.08	-3.00	1.51	5.95	9.92	13.21	15.64	17.10	1.25
65535
12.41	11.65	9.89	7.43	4.64	1.88	-0.65	-2.82	-4.55	-5.75	-6.36	-6.38	-5.97	-5.44	-5.06	-4.98	-6.73
65535
2.78	2.38	1.90	1.39	0.76	-0.02	-0.92	-1.89	-2.82	-3.55	-3.88	-3.54	-2.29	-0.02	3.10	6.68	9.30
65535
-5.79	-2.64	0.02	2.23	4.09	5.52	6.21	5.87	4.41	2.09	-0.54	-2.85	-4.39	-5.03	-4.93	-4.35	0.90
65535
4.84	5.62	6.23	6.53	6.36	5.63	4.38	2.77	1.04	-0.65	-2.26	-3.89	-5.72	-7.88	-10.29	-12.69	4.85
65535
-18.68	-19.94	-20.07	-18.88	-16.32	-12.50	-7.70	-2.32	3.12	8.14	12.36	15.57	17.80	19.19	19.96	20.31	18.51
65535
6.73	6.68	6.58	6.50	6.40	6.13	5.49	4.28	2.39	-0.08	-2.88	-5.61	-7.94	-9.81	-11.46	-13.36	-4.97
65535
7.50	3.99	-0.18	-4.42	-8.01	-10.39	-11.33	-10.87	-9.21	-6.55	-3.01	1.26	6.03	10.90	15.36	18.91	10.99
65535
5.24	6.13	5.70	4.22	2.11	-0.12	-1.99	-3.11	-3.33	-2.75	-1.77	-0.91	-0.64	-1.27	-2.74	-4.77	-2.96
65535
7.02	5.11	3.71	2.86	2.42	2.08	1.42	0.08	-2.11	-4.95	-7.69	-9.27	-8.53	-4.79	1.93	10.71	27.26
65535
-10.14	-1.79	4.42	8.06	9.58	9.84	9.72	9.63	9.32	8.09	5.18	0.32	-6.05	-12.94	-19.21	-24.07	-57.50
65535
57.42	55.16	52.81	48.99	42.34	31.81	17.16	-0.55	-18.89	-34.57	-44.68	-47.91	-45.47	-40.48	-36.64	-36.47	-76.88
65535
-20.83	-26.65	-31.57	-32.82	-28.63	-18.69	-4.10	12.67	28.15	38.54	40.89	34.48	21.40	6.05	-6.48	-12.42	-19.24
65535
-67.97	-58.78	-44.52	-27.41	-9.37	7.53	20.59	26.81	24.26	13.94	0.61	-8.28	-5.63	11.82	41.36	75.08	-25.68
65535
109.33	122.85	117.97	95.29	58.79	14.17	-32.15	-73.31	-102.30	-113.38	-104.16	-77.42	-41.21	-6.78	15.04	17.23	-246.65
65535
219.26	182.90	136.27	87.46	43.26	7.68	-18.58	-37.53	-52.37	-65.62	-77.80	-87.48	-92.34	-90.81	-83.11	-71.11	-145.70
65535
-158.10	-143.58	-128.43	-111.43	-91.29	-67.70	-41.57	-14.59	11.63	36.25	59.42	82.00	104.99	129.01	154.00	179.31	240.22
65535
-181.99	-158.91	-137.73	-118.11	-99.07	-79.30	-57.50	-32.67	-4.25	27.78	62.74	98.99	133.86	163.95	185.75	196.52	262.86
65535
172.47	159.53	137.28	108.78	77.09	44.69	13.12	-16.84	-44.63	-69.43	-89.71	-103.43	-108.81	-105.37	-94.67	-80.12	133.81
65535
63.20	74.04	80.28	82.67	82.72	81.11	76.73	66.87	48.59	20.37	-16.68	-58.92	-101.26	-138.99	-169.18	-191.50	-132.45
65535
58.54	45.67	33.82	22.02	10.72	1.15	-5.73	-9.84	-12.02	-13.52	-15.26	-17.61	-20.38	-23.25	-25.97	-28.33	-43.98
65535
-118.41	-118.44	-115.69	-108.85	-96.89	-79.43	-56.81	-29.97	-0.29	30.60	60.91	88.84	112.85	131.86	145.53	154.20	96.92
65535
17.78	19.09	18.08	15.45	11.75	7.55	3.45	-0.02	-2.61	-4.47	-6.12	-8.21	-11.20	-15.20	-20.02	-25.32	18.74
65535
47.36	41.75	35.88	29.40	21.90	13.06	2.89	-8.05	-18.63	-27.29	-32.54	-33.46	-30.02	-23.12	-14.22	-4.90	19.90
65535
2.40	9.15	13.67	15.69	15.08	12.01	6.98	0.97	-4.88	-9.43	-12.02	-12.59	-11.66	-10.01	-8.35	-7.08	1.54
65535
12.13	12.75	13.28	13.67	13.68	12.96	11.20	8.19	3.89	-1.52	-7.60	-13.61	-18.56	-21.38	-21.25	-17.85	25.90
65535
-35.87	-27.47	-18.15	-9.04	-0.97	5.59	10.45	13.54	14.88	14.53	12.70	9.80	6.43	3.27	0.85	-0.54	16.46
65535
8.43	8.52	8.73	8.69	8.28	7.54	6.58	5.42	3.97	2.02	-0.64	-4.11	-8.38	-13.26	-18.44	-23.41	20.27
65535
-31.32	-33.75	-33.76	-30.85	-24.99	-16.72	-7.03	2.87	11.81	18.96	23.89	26.50	26.96	25.56	22.76	19.15	7.66
65535
28.07	24.95	22.78	21.41	20.22	18.28	14.81	9.51	2.70	-4.81	-12.16	-18.76	-24.46	-29.49	-34.20	-38.81	-35.75
65535
0.05	-4.39	-8.67	-12.78	-16.67	-20.02	-22.20	-22.34	-19.61	-13.60	-4.51	6.75	18.87	30.46	40.44	48.21	17.12
65535
0.76	4.04	5.53	5.58	4.53	2.71	0.51	-1.67	-3.42	-4.46	-4.66	-4.08	-2.98	-1.71	-0.64	-0.08	-2.48
65535
19.38	18.54	17.07	15.13	12.85	10.33	7.60	4.66	1.48	-2.04	-6.03	-10.59	-15.61	-20.64	-24.85	-27.23	7.50
65535
-36.82	-33.24	-26.71	-18.16	-8.87	-0.16	7.02	12.19	15.34	16.70	16.66	15.59	13.76	11.45	8.90	6.38	6.57
65535
5.11	3.47	2.58	2.44	2.88	3.55	4.05	4.02	3.32	1.96	0.12	-2.00	-4.26	-6.60	-9.04	-11.60	-14.35
65535
6.60	3.67	0.43	-3.18	-7.11	-11.03	-14.30	-16.09	-15.67	-12.62	-7.10	0.23	8.36	16.26	23.13	28.49	13.41
65535
4.47	6.68	7.54	7.22	5.92	3.86	1.38	-1.11	-3.22	-4.68	-5.41	-5.55	-5.28	-4.78	-4.06	-3.06	7.16
65535
4.43	5.75	6.81	7.22	6.74	5.42	3.54	1.53	-0.26	-1.66	-2.77	-3.85	-5.21	-7.03	-9.22	-11.40	28.38
65535
-34.12	-34.11	-31.79	-26.73	-18.96	-9.13	1.52	11.48	19.27	23.87	24.91	22.83	18.70	13.96	10.07	8.16	79.22
65535
-42.06	-38.91	-33.79	-27.53	-20.96	-14.75	-9.19	-4.21	0.65	6.11	12.89	21.30	30.62	38.81	42.60	38.47	-64.42
65535
167.60	142.70	110.32	75.50	43.64	18.48	0.94	-10.69	-19.40	-27.90	-37.92	-50.30	-65.96	-86.33	-113.19	-147.51	-303.94
65535
51.03	6.33	-37.75	-76.82	-107.54	-127.93	-136.87	-133.34	-116.11	-84.20	-37.69	21.49	89.50	161.29	231.78	296.88	173.77
65535
-123.59	-75.20	-35.69	-4.67	18.34	33.92	42.85	46.20	45.22	41.01	34.23	25.00	13.09	-1.75	-19.43	-39.53	-27.06
65535
139.48	116.69	93.48	70.33	47.63	25.89	5.71	-12.18	-27.17	-39.03	-48.16	-55.68	-63.23	-72.40	-83.95	-97.41	-108.60
65535
-29.47	-40.76	-47.57	-48.86	-45.07	-37.75	-28.72	-19.27	-9.83	-0.11	10.49	22.67	37.22	55.11	77.37	104.58	122.08
65535
-94.47	-60.32	-26.72	3.00	26.30	42.00	50.27	52.04	48.40	40.27	28.41	13.66	-3.09	-21.08	-39.80	-58.87	31.55
65535
12.88	-4.44	-18.54	-27.61	-30.51	-27.31	-19.40	-8.97	1.71	10.89	17.57	21.47	22.61	21.16	17.29	11.27	-9.51
65535
44.64	36.05	27.52	19.98	14.05	9.84	6.86	4.24	0.98	-3.67	-9.95	-17.44	-25.24	-32.14	-36.96	-38.82	-6.02
65535
-40.83	-36.21	-29.13	-20.55	-11.49	-2.84	4.78	10.97	15.52	18.30	19.27	18.56	16.58	14.05	11.92	11.12	29.19
65535
-22.98	-19.90	-15.41	-10.50	-6.14	-2.99	-1.09	0.03	1.16	2.98	5.74	9.16	12.58	15.18	16.35	15.88	73.24
65535
-29.89	-31.90	-32.68	-30.50	-23.88	-12.19	3.81	21.83	38.40	49.70	52.61	45.56	28.85	4.28	-25.61	-58.38	-223.37
65535
204.29	170.05	135.72	101.29	66.83	32.71	-0.33	-31.33	-59.19	-82.72	-100.56	-110.97	-111.87	-100.93	-76.20	-36.86	129.87
65535
-337.11	-273.53	-204.10	-134.26	-68.95	-11.83	35.15	71.46	97.61	114.76	124.41	128.09	127.00	121.67	111.99	97.69	97.35
65535
111.53	89.64	66.48	44.11	23.80	5.78	-10.44	-25.14	-37.70	-46.77	-50.96	-49.79	-44.10	-35.59	-25.73	-15.06	67.90
65535
26.05	38.61	50.63	59.15	60.72	53.18	37.11	15.89	-5.65	-23.38	-35.49	-42.86	-48.04	-53.67	-61.28	-70.90	-173.43
65535
159.64	148.50	137.26	125.35	111.72	95.06	74.18	48.18	16.76	-19.59	-59.52	-100.73	-140.30	-175.10	-202.20	-219.26	-190.38
65535
-207.86	-201.51	-183.93	-156.79	-122.38	-83.41	-42.56	-2.26	35.53	69.46	98.85	123.67	144.44	161.93	176.92	189.91	34.13
65535
-23.39	-14.01	-6.55	-1.04	2.60	4.45	4.64	3.34	1.02	-1.56	-3.30	-3.13	-0.35	5.03	12.24	20.01	60.69
65535
0.44	5.67	8.77	9.93	9.68	8.54	6.83	4.67	2.05	-0.93	-4.03	-6.87	-9.15	-10.78	-11.91	-12.91	25.23
65535
21.34	19.68	17.58	15.15	12.55	9.88	7.10	4.15	0.94	-2.57	-6.39	-10.56	-15.08	-19.92	-24.78	-29.07	33.04
65535
-39.73	-40.19	-37.57	-31.73	-23.17	-12.92	-2.23	7.79	16.39	23.14	27.79	30.03	29.43	25.64	18.60	8.79	-12.22
65535
42.47	30.39	19.07	9.37	1.72	-3.87	-7.66	-10.00	-11.21	-11.61	-11.47	-11.00	-10.33	-9.54	-8.64	-7.70	-7.54
65535
-11.50	-10.93	-10.93	-11.69	-13.08	-14.62	-15.45	-14.59	-11.32	-5.53	2.17	10.67	18.69	25.27	29.99	32.84	15.05
65535
11.49	11.33	9.92	7.38	3.95	0.16	-3.34	-5.93	-7.21	-7.18	-6.17	-4.69	-3.29	-2.34	-1.95	-2.08	-2.82
65535
15.33	14.66	13.81	12.67	11.08	8.91	6.10	2.69	-1.16	-5.24	-9.23	-12.69	-15.10	-15.91	-14.70	-11.28	15.01
65535
-23.68	-16.81	-9.32	-2.11	4.02	8.52	11.18	12.04	11.35	9.42	6.63	3.36	0.02	-2.96	-5.20	-6.47	1.74
65535
6.46	6.77	7.26	7.42	6.90	5.61	3.70	1.51	-0.58	-2.31	-3.60	-4.61	-5.64	-7.09	-9.31	-12.47	-3.09
65535
-11.66	-16.13	-20.33	-23.38	-24.44	-22.93	-18.74	-12.23	-4.13	4.59	12.97	20.23	25.78	29.30	30.75	30.30	13.13
65535
12.13	9.26	6.05	3.04	0.58	-1.19	-2.26	-2.77	-2.86	-2.69	-2.46	-2.32	-2.45	-2.95	-3.89	-5.25	-8.82
65535
15.02	13.13	11.16	9.14	7.06	4.79	2.16	-0.95	-4.50	-8.12	-11.18	-12.87	-12.48	-9.69	-4.67	1.93	9.63
65535
-9.27	-2.35	3.46	7.68	10.10	10.78	9.90	7.76	4.70	1.14	-2.45	-5.63	-7.99	-9.31	-9.57	-8.98	-3.61
65535
5.27	6.26	6.82	6.78	6.19	5.25	4.17	3.10	1.99	0.73	-0.88	-2.99	-5.67	-8.84	-12.33	-15.79	-0.67
65535
-21.66	-23.48	-23.60	-21.64	-17.55	-11.66	-4.73	2.35	8.73	13.79	17.22	18.97	19.09	17.70	15.03	11.41	0.39
65535
6.32	2.52	-0.48	-2.32	-2.94	-2.56	-1.55	-0.28	0.91	1.80	2.19	1.97	1.08	-0.35	-2.18	-4.19	-10.90
65535
4.99	2.77	0.32	-2.49	-5.61	-8.78	-11.49	-13.10	-12.98	-10.76	-6.44	-0.44	6.48	13.43	19.60	24.46	5.58
65535
11.26	12.89	12.92	11.45	8.70	5.01	0.95	-2.84	-5.78	-7.55	-8.19	-8.07	-7.68	-7.44	-7.56	-8.03	-14.86
65535
11.73	10.99	10.23	9.38	8.34	6.99	5.24	3.01	0.24	-3.03	-6.57	-9.93	-12.42	-13.35	-12.17	-8.72	7.48
65535
-25.60	-18.78	-11.39	-4.25	1.99	6.88	10.16	11.80	11.87	10.57	8.21	5.18	1.94	-0.99	-3.18	-4.36	-0.34
65535
3.26	3.76	4.49	5.05	5.20	4.94	4.41	3.75	2.96	1.87	0.31	-1.83	-4.52	-7.65	-11.12	-14.84	-3.41
65535
-15.56	-19.06	-21.64	-22.54	-21.17	-17.39	-11.60	-4.59	2.64	9.26	14.76	18.89	21.61	22.86	22.62	20.94	4.32
65535
10.36	6.81	3.21	0.18	-1.83	-2.71	-2.63	-1.97	-1.17	-0.55	-0.28	-0.38	-0.83	-1.59	-2.65	-3.98	-11.13
65535
9.89	8.09	6.03	3.59	0.66	-2.79	-6.53	-9.98	-12.35	-12.89	-11.12	-7.06	-1.26	5.44	12.15	18.15	9.04
65535
2.82	6.31	8.41	9.15	8.62	6.97	4.45	1.42	-1.69	-4.47	-6.57	-7.75	-8.00	-7.49	-6.57	-5.67	-6.73
65535
10.62	10.59	10.06	9.21	8.22	7.14	5.87	4.24	2.11	-0.59	-3.78	-7.28	-10.78	-13.81	-15.77	-16.05	6.75
65535
-27.66	-23.51	-17.45	-10.25	-2.91	3.65	8.75	12.11	13.69	13.68	12.31	9.85	6.69	3.26	0.10	-2.33	1.45
65535
1.58	1.24	1.72	2.60	3.44	3.91	3.86	3.32	2.38	1.19	-0.12	-1.53	-3.03	-4.72	-6.72	-9.14	-2.73
65535
-7.84	-11.06	-14.27	-16.90	-18.31	-17.89	-15.35	-10.78	-4.66	2.26	9.15	15.25	20.00	22.99	24.07	23.28	8.10
65535
10.11	6.76	3.09	-0.25	-2.76	-4.19	-4.52	-3.93	-2.74	-1.36	-0.16	0.57	0.72	0.34	-0.39	-1.27	-5.20
65535
11.08	9.99	8.61	6.78	4.42	1.61	-1.45	-4.44	-7.02	-8.80	-9.46	-8.77	-6.67	-3.25	1.19	6.21	2.10
65535
3.97	8.43	11.74	13.42	13.27	11.37	8.07	3.91	-0.52	-4.67	-8.13	-10.67	-12.21	-12.84	-12.78	-12.36	-14.56
65535
4.76	5.03	5.05	4.87	4.63	4.40	4.13	3.66	2.77	1.29	-0.85	-3.53	-6.39	-8.92	-10.46	-10.40	5.94
65535
-28.83	-24.68	-18.77	-11.77	-4.53	2.12	7.59	11.53	13.80	14.43	13.54	11.37	8.31	4.90	1.72	-0.72	1.94
65535
1.89	1.55	2.00	2.84	3.63	4.08	4.04	3.49	2.54	1.32	-0.04	-1.51	-3.13	-5.03	-7.38	-10.25	-2.11
65535
-9.57	-13.16	-16.51	-18.99	-19.88	-18.65	-15.10	-9.51	-2.59	4.70	11.42	16.91	20.83	23.12	23.85	23.17	7.14
65535
11.98	9.06	5.62	2.20	-0.64	-2.51	-3.29	-3.18	-2.52	-1.77	-1.27	-1.23	-1.66	-2.48	-3.55	-4.76	-10.06
65535
11.14	9.71	8.10	6.23	4.03	1.43	-1.61	-4.98	-8.29	-10.92	-12.06	-11.04	-7.57	-1.91	5.15	12.54	10.74
65535
-1.52	3.85	7.52	9.46	9.82	8.77	6.55	3.48	0.01	-3.35	-6.10	-7.88	-8.59	-8.33	-7.42	-6.24	-3.45
65535
9.01	9.66	9.75	9.24	8.22	6.84	5.19	3.35	1.37	-0.78	-3.15	-5.79	-8.71	-11.82	-14.88	-17.46	3.22
65535
-25.62	-25.43	-23.16	-18.80	-12.79	-5.94	0.78	6.56	10.94	13.81	15.35	15.79	15.25	13.77	11.35	8.19	3.48
65535
4.47	1.31	-0.94	-1.93	-1.69	-0.58	0.85	2.09	2.80	2.88	2.36	1.31	-0.17	-2.03	-4.19	-6.49	-10.85
65535
5.54	3.28	0.96	-1.63	-4.60	-7.82	-10.79	-12.74	-12.90	-10.82	-6.59	-0.76	5.80	12.26	18.04	22.78	8.37
65535
7.11	9.33	10.12	9.46	7.49	4.58	1.23	-2.05	-4.80	-6.73	-7.67	-7.66	-6.86	-5.63	-4.37	-3.49	-7.49
65535
12.57	12.03	10.88	9.36	7.69	6.05	4.43	2.81	1.06	-0.98	-3.50	-6.58	-10.05	-13.41	-15.86	-16.53	5.03
65533
-27.34	-23.14	-16.95	-9.72	-2.50	3.82	8.68	11.87	13.37	13.34	11.97	9.56	6.47	3.13	-2.52	1.54
65535
-0.61	-1.13	-0.63	0.59	2.08	3.40	4.17	4.27	3.73	2.73	1.44	-0.07	-1.79	-3.75	-5.98	-8.45	-6.76
65535
-2.84	-5.71	-8.65	-11.47	-13.78	-15.06	-14.80	-12.64	-8.56	-2.91	3.60	10.14	15.87	20.19	22.83	23.77	5.22
65535
11.25	9.51	6.92	3.81	0.60	-2.28	-4.38	-5.40	-5.28	-4.30	-2.95	-1.75	-1.08	-1.04	-1.49	-2.17	-10.67
65535
13.00	12.24	11.29	9.96	8.09	5.63	2.64	-0.73	-4.29	-7.70	-10.48	-12.08	-11.96	-9.82	-5.70	-0.02	7.44
65535
-11.59	-5.05	0.75	5.24	8.11	9.31	9.01	7.48	5.10	2.23	-0.74	-3.44	-5.55	-6.85	-7.23	-6.78	-1.52
65535
3.19	4.37	5.37	5.93	5.99	5.59	4.86	3.91	2.77	1.37	-0.38	-2.58	-5.30	-8.44	-11.77	-14.86	3.23
65535
-21.91	-22.84	-21.96	-19.10	-14.46	-8.59	-2.22	3.89	9.13	13.10	15.62	16.66	16.29	14.71	12.25	9.39	11.32
65535
-1.44	-3.56	-4.71	-4.80	-3.96	-2.51	-0.87	0.62	1.75	2.50	2.96	3.25	3.40	3.27	2.67	1.49	2.80
65535
8.25	6.13	3.91	1.81	-0.07	-1.71	-3.09	-4.15	-4.79	-4.87	-4.32	-3.14	-1.44	0.58	2.62	4.26	-11.62
65535
19.43	18.85	16.69	13.03	8.29	3.14	-1.70	-5.65	-8.38	-9.84	-10.23	-9.89	-9.20	-8.52	-8.07	-7.93	-18.16
65535
-1.47	-1.58	-1.49	-1.05	-0.26	0.71	1.60	2.11	2.03	1.31	0.09	-1.24	-2.14	-1.96	-0.15	3.51	11.21
65535
-20.54	-14.13	-7.48	-1.39	3.54	7.03	9.05	9.71	9.17	7.61	5.28	2.55	-0.13	-2.31	-3.71	-4.29	3.22
65535
3.78	4.20	4.67	4.94	4.93	4.59	3.93	2.97	1.74	0.29	-1.30	-3.00	-4.82	-6.80	-8.97	-11.21	6.31
65535
-16.31	-17.56	-17.51	-15.78	-12.33	-7.54	-2.08	3.26	7.80	11.12	13.07	13.67	13.05	11.44	9.14	6.54	12.66
65535
-2.26	-4.17	-5.25	-5.47	-4.91	-3.77	-2.24	-0.52	1.22	2.78	3.93	4.54	4.58	4.22	3.76	3.50	42.91
65535
-26.62	-26.12	-25.40	-24.58	-23.52	-21.79	-18.77	-13.90	-6.94	1.84	11.71	21.64	30.56	37.49	41.68	42.72	31.39
65535
52.25	48.01	43.02	39.11	37.61	38.48	39.81	38.20	30.16	13.76	-10.04	-37.49	-63.36	-82.88	-93.14	-93.46	-75.87
65535
22.34	37.50	56.12	74.08	86.48	88.72	78.08	55.09	23.65	-10.43	-41.72	-67.02	-85.74	-98.87	-107.31	-110.93	-90.53
65535
-94.10	-85.49	-71.07	-52.95	-33.89	-16.15	-0.83	12.13	23.31	32.99	40.91	46.42	49.21	49.78	49.50	50.18	23.99
65535
-61.20	-54.87	-45.58	-34.24	-22.02	-10.12	0.39	8.71	14.41	17.77	19.79	22.01	25.89	32.04	39.76	47.22	23.81
65535
52.41	53.34	49.73	42.39	32.75	22.22	11.74	1.71	-7.76	-16.59	-24.64	-31.82	-38.15	-43.81	-49.12	-54.32	-58.46
65535
22.77	17.72	13.06	9.10	6.05	3.96	2.63	1.64	0.42	-1.48	-4.25	-7.71	-11.39	-14.81	-17.68	-20.00	-46.73
65535
-33.74	-35.65	-37.50	-38.88	-39.04	-37.04	-32.05	-23.63	-12.02	1.97	17.01	31.71	44.92	56.08	65.21	72.71	54.17
65535
-21.78	-16.13	-11.15	-6.95	-3.65	-1.21	0.57	2.00	3.36	4.78	6.19	7.42	8.33	8.92	9.36	9.87	56.75
65535
7.94	8.54	8.69	7.96	6.17	3.53	0.63	-1.87	-3.54	-4.32	-4.53	-4.61	-4.91	-5.56	-6.50	-7.65	35.01
65535
12.77	11.22	9.36	7.20	4.88	2.61	0.64	-0.84	-1.81	-2.41	-2.95	-3.80	-5.29	-7.54	-10.43	-13.66	13.66
65535
4.52	1.73	-0.48	-2.06	-3.02	-3.45	-3.48	-3.29	-3.07	-2.92	-2.73	-2.14	-0.65	2.18	6.54	12.26	81.47
65535
-48.95	-41.96	-34.90	-27.78	-20.41	-12.66	-4.66	3.19	10.40	16.68	21.98	26.34	29.53	30.81	29.07	23.32	-40.05
65535
134.76	121.01	104.88	87.66	70.10	52.10	33.10	12.70	-8.93	-30.98	-52.45	-72.56	-90.90	-107.28	-121.27	-131.89	-51.82
65535
-125.94	-125.50	-117.90	-103.30	-82.97	-59.05	-33.79	-9.01	14.35	36.18	56.88	76.71	95.50	112.54	126.99	138.35	32.77
65535
62.12	68.03	71.93	73.53	71.64	64.54	50.88	30.57	5.17	-22.31	-48.31	-69.57	-84.05	-91.29	-92.52	-90.32	-150.53
65535
95.22	94.02	86.57	71.34	48.43	19.58	-12.03	-42.23	-66.64	-81.47	-84.44	-75.34	-55.98	-29.55	0.59	31.95	89.47
65535
-176.58	-144.98	-112.88	-80.39	-48.45	-18.67	7.28	28.21	43.75	54.46	61.56	66.63	71.22	76.51	82.84	89.48	50.26
65535
133.73	134.31	127.32	110.39	82.99	47.09	7.02	-31.57	-63.28	-84.46	-94.09	-93.62	-86.10	-74.95	-62.95	-51.89	19.02
65535
-11.40	-4.26	0.68	3.53	4.64	4.71	4.66	5.33	7.02	9.20	10.54	9.37	4.45	-4.41	-16.00	-28.07	-73.58
65535
54.33	47.48	43.82	41.60	38.24	31.54	20.71	6.73	-8.10	-21.28	-31.03	-37.00	-40.27	-42.90	-47.46	-56.43	-163.81
65535
18.55	-3.48	-30.69	-59.09	-82.80	-95.59	-93.10	-74.68	-43.90	-7.35	27.80	56.47	77.12	91.54	103.35	115.91	67.30
65535
-100.14	-82.67	-63.97	-45.40	-27.81	-11.63	2.90	15.31	25.05	31.83	35.94	38.35	40.35	43.04	46.93	51.87	155.71
65535
-31.19	-26.11	-21.78	-18.27	-15.19	-11.70	-6.74	0.53	10.17	21.02	30.64	35.86	33.77	22.64	2.34	-25.98	28.63
65535
66.37	26.69	-16.44	-60.56	-101.22	-131.80	-144.94	-135.23	-101.84	-49.79	11.18	69.56	115.76	144.53	155.59	152.20	55.05
65535
112.55	93.62	71.89	49.23	27.05	6.76	-10.25	-22.99	-31.26	-35.76	-37.90	-39.29	-41.22	-44.16	-47.66	-50.66	-19.66
65535
22.65	23.32	25.60	28.19	29.65	28.98	26.03	21.26	15.19	7.83	-1.41	-13.27	-28.01	-44.92	-62.46	-78.70	-106.65
65535
-5.06	-14.73	-20.62	-23.04	-22.39	-19.05	-13.61	-6.98	-0.33	5.34	9.59	12.80	15.98	20.29	26.60	35.18	-19.77
65535
-41.23	-29.69	-18.06	-7.31	1.75	8.53	12.67	14.24	13.67	11.71	9.25	7.00	5.36	4.38	3.93	3.83	-18.38
65535
2.67	3.24	4.12	5.08	5.73	5.67	4.71	2.99	0.94	-0.94	-2.34	-3.32	-4.30	-5.75	-7.91	-10.52	-0.23
65535
-30.90	-31.65	-29.94	-25.39	-18.35	-9.82	-1.07	6.75	12.90	17.15	19.60	20.52	20.21	18.91	16.84	14.23	-11.35
65535
22.51	19.70	17.17	15.05	13.36	11.98	10.63	8.96	6.54	3.03	-1.78	-7.98	-15.51	-24.31	-34.26	-45.15	-61.41
65535
-6.51	-17.74	-27.79	-35.58	-40.15	-40.92	-37.73	-30.72	-20.34	-7.18	7.88	23.75	39.21	53.21	65.20	75.35	101.45
65535
-78.41	-69.20	-58.78	-46.52	-32.33	-16.74	-0.68	14.63	27.89	37.96	44.02	45.79	43.54	37.99	30.09	20.73	47.41
65535
64.67	54.25	43.78	33.44	23.37	13.71	4.51	-4.20	-12.37	-19.87	-26.42	-31.63	-35.09	-36.64	-36.43	-35.05	1.95
65535
12.15	13.41	13.63	12.63	10.65	8.11	5.43	2.84	0.40	-2.03	-4.60	-7.46	-10.69	-14.28	-18.14	-22.01	-54.99
65535
31.29	28.19	25.78	24.11	23.09	22.44	21.69	20.06	16.57	10.19	0.34	-12.83	-28.32	-44.81	-61.11	-76.62	-64.87
65535
-81.01	-93.16	-101.23	-102.38	-94.02	-75.19	-47.58	-15.24	16.75	44.12	64.84	79.26	89.38	97.45	105.10	112.91	63.95
65535
-8.03	-0.44	6.54	12.73	17.93	21.83	23.93	23.74	20.84	15.14	6.91	-3.32	-14.90	-27.39	-40.66	-54.91	-76.79
65535
70.31	53.54	36.06	19.00	3.79	-8.30	-16.57	-21.03	-22.35	-21.53	-19.63	-17.51	-15.71	-14.40	-13.41	-12.22	-23.30
65535
-63.64	-60.07	-54.64	-47.35	-38.48	-28.45	-17.54	-5.90	6.34	18.84	30.90	41.54	49.76	54.93	57.05	56.74	39.21
65535
-7.54	-9.78	-11.79	-13.34	-14.48	-15.35	-15.89	-15.67	-13.99	-10.17	-3.78	5.05	15.60	26.82	37.52	46.74	83.60
65535
9.46	14.15	16.40	16.40	14.56	11.51	7.99	4.66	1.81	-0.70	-3.41	-6.93	-11.66	-17.61	-24.55	-32.12	-18.34
65535
61.86	53.59	45.06	36.39	27.80	19.51	11.52	3.58	-4.78	-13.87	-23.55	-33.07	-41.21	-46.70	-48.74	-47.34	-58.03
65535
-3.64	1.65	6.78	10.69	12.79	12.96	11.39	8.48	4.67	0.44	-3.75	-7.54	-10.70	-13.18	-14.99	-16.10	-38.37
65535
-35.98	-35.00	-32.56	-28.54	-23.06	-16.49	-9.25	-1.70	5.88	13.23	19.94	25.47	29.19	30.70	30.09	28.15	26.76
65535
-38.94	-39.40	-37.24	-32.02	-24.15	-14.65	-4.71	4.63	12.71	19.19	23.92	26.84	27.95	27.39	25.53	22.93	42.56
65535
4.39	2.05	0.43	-0.36	-0.39	0.10	0.81	1.44	1.75	1.61	1.04	0.13	-1.01	-2.33	-3.88	-5.82	40.31
65535
-6.06	-9.16	-12.76	-16.44	-19.51	-21.17	-20.68	-17.66	-12.20	-4.80	3.73	12.55	20.98	28.51	34.84	39.77	46.11
65535
37.36	39.07	38.97	37.00	33.22	27.77	20.90	12.85	3.86	-5.87	-16.12	-26.58	-36.90	-46.65	-55.51	-63.36	-64.65
65535
40.39	33.85	27.32	20.41	12.86	4.57	-4.29	-13.21	-21.29	-27.30	-29.95	-28.25	-21.91	-11.46	1.85	16.36	-2.67
65535
-31.49	-18.91	-8.52	-0.56	5.00	8.28	9.48	8.94	7.20	4.97	2.98	1.81	1.63	2.23	3.14	3.88	-5.12
65535
6.57	6.30	5.71	5.01	4.34	3.64	2.74	1.44	-0.38	-2.63	-5.00	-6.95	-7.88	-7.27	-4.87	-0.77	10.82
65535
-11.39	-5.50	0.25	5.32	9.34	12.08	13.39	13.09	11.09	7.46	2.59	-2.89	-8.23	-12.75	-15.99	-17.85	-5.43
65535
-2.19	-1.78	-0.64	0.96	2.76	4.46	5.78	6.43	6.25	5.16	3.15	0.30	-3.15	-6.70	-9.65	-11.16	11.57
65535
-27.59	-24.70	-19.80	-13.58	-6.94	-0.61	4.90	9.29	12.40	14.06	14.17	12.84	10.42	7.50	4.80	2.85	8.61
65535
4.82	4.66	4.95	5.28	5.38	5.17	4.72	4.11	3.36	2.35	0.87	-1.33	-4.44	-8.47	-13.22	-18.23	4.73
65535
-18.91	-22.18	-23.41	-22.19	-18.55	-13.00	-6.38	0.46	6.80	12.15	16.21	18.77	19.72	19.10	17.14	14.32	4.78
65535
11.14	8.24	5.88	4.15	2.95	2.09	1.38	0.69	-0.09	-1.04	-2.15	-3.40	-4.76	-6.30	-8.17	-10.60	-2.59
65535
-6.34	-10.01	-13.74	-16.73	-18.14	-17.32	-14.15	-9.07	-2.89	3.45	9.21	14.00	17.69	20.29	21.77	22.04	7.22
65535
11.29	9.30	6.65	3.86	1.41	-0.41	-1.59	-2.24	-2.57	-2.74	-2.88	-3.05	-3.32	-3.77	-4.45	-5.49	-7.69
65535
7.88	5.68	2.70	-1.00	-5.11	-9.07	-12.13	-13.60	-12.99	-10.25	-5.71	-0.08	5.87	11.47	16.26	20.05	10.00
65535
5.05	6.60	6.96	6.13	4.32	1.99	-0.28	-1.99	-2.90	-3.11	-2.97	-2.88	-3.11	-3.71	-4.56	-5.50	-10.82
65535
14.38	13.46	12.40	10.98	8.96	6.14	2.47	-1.87	-6.39	-10.42	-13.17	-14.00	-12.58	-9.00	-3.76	2.41	10.06
65535
-12.12	-6.18	-1.04	3.09	6.01	7.57	7.67	6.43	4.23	1.67	-0.64	-2.29	-3.21	-3.58	-3.72	-3.88	-5.38
65535
11.33	11.04	10.73	10.34	9.70	8.64	7.06	4.95	2.36	-0.66	-4.07	-7.81	-11.68	-15.23	-17.83	-18.81	5.93
65535
-28.99	-25.66	-20.49	-14.21	-7.64	-1.49	3.79	7.98	11.03	12.94	13.73	13.40	12.09	10.07	7.79	5.73	5.92
65535
4.29	3.65	3.76	4.28	4.80	4.92	4.44	3.35	1.81	0.04	-1.72	-3.40	-4.98	-6.56	-8.30	-10.38	-7.98
65535
0.93	-2.23	-5.87	-9.62	-12.91	-15.04	-15.41	-13.69	-9.96	-4.69	1.45	7.74	13.56	18.51	22.33	24.90	13.05
65535
5.16	5.27	4.45	3.06	1.51	0.14	-0.85	-1.42	-1.68	-1.77	-1.85	-1.96	-2.13	-2.33	-2.58	-2.95	-4.21
65535
13.70	12.72	11.31	9.51	7.46	5.34	3.30	1.41	-0.39	-2.18	-4.10	-6.29	-8.79	-11.57	-14.42	-16.95	-0.00
65535
-22.83	-23.10	-21.60	-18.30	-13.53	-7.91	-2.16	3.11	7.54	11.00	13.49	15.04	15.71	15.54	14.65	13.31	10.41
65535
1.44	0.22	-0.46	-0.50	0.01	0.82	1.63	2.16	2.28	1.98	1.32	0.42	-0.68	-1.96	-3.47	-5.22	-10.00
65535
13.28	11.35	9.56	8.03	6.71	5.44	3.99	2.18	-0.04	-2.58	-5.24	-7.80	-9.97	-11.50	-12.04	-11.30	3.53
65535
-22.63	-19.01	-14.30	-9.03	-3.84	0.76	4.43	7.06	8.69	9.40	9.30	8.52	7.25	5.76	4.36	3.35	5.20
65535
1.27	1.48	2.12	2.87	3.41	3.49	3.06	2.24	1.23	0.23	-0.67	-1.54	-2.55	-3.84	-5.45	-7.28	-14.86
65535
10.94	9.27	7.88	6.71	5.59	4.34	2.81	0.95	-1.20	-3.54	-5.86	-7.86	-9.09	-9.10	-7.53	-4.33	2.11
65535
-16.75	-11.44	-6.07	-1.26	2.59	5.25	6.70	6.97	6.24	4.76	2.90	1.13	-0.16	-0.71	-0.50	0.30	2.78
65535
0.77	1.95	2.94	3.62	3.96	3.99	3.75	3.25	2.45	1.28	-0.25	-2.06	-3.97	-5.78	-7.32	-8.55	-12.61
65535
5.81	4.81	3.61	2.08	0.21	-1.91	-4.07	-5.98	-7.31	-7.74	-6.99	-4.91	-1.53	2.92	7.97	13.03	4.87
32767
3.31	5.20	5.67	4.94	3.41	1.50	-0.40	-2.01	-3.13	-3.71	-3.79	-3.51	-3.02	-2.48	-1.94	-2.05
65535
5.49	5.97	6.35	6.49	6.21	5.34	3.84	1.85	-0.38	-2.53	-4.34	-5.66	-6.48	-6.95	-7.31	-7.88	-9.88
65535
-1.17	-3.02	-5.54	-8.37	-10.91	-12.41	-12.26	-10.23	-6.51	-1.70	3.43	8.18	12.05	14.82	16.49	17.16	1.85
65535
5.24	4.36	2.99	1.35	-0.26	-1.58	-2.43	-2.70	-2.46	-1.88	-1.20	-0.62	-0.24	-0.08	-0.11	-0.31	-10.10
65535
11.23	10.50	9.39	7.87	6.02	3.99	1.93	0.01	-1.67	-3.08	-4.28	-5.42	-6.70	-8.25	-9.99	-11.58	-2.02
65535
-20.54	-20.17	-18.24	-14.83	-10.30	-5.25	-0.25	4.25	7.97	10.72	12.38	12.91	12.43	11.19	9.60	8.12	4.01
65535
1.04	0.56	0.56	0.79	1.02	1.10	1.04	0.91	0.81	0.73	0.57	0.17	-0.57	-1.63	-2.90	-4.17	-7.08
65535
5.75	4.74	3.88	3.13	2.45	1.77	1.01	0.03	-1.29	-2.91	-4.52	-5.61	-5.61	-4.15	-1.25	2.66	6.49
65535
-6.71	-2.92	-0.04	1.78	2.64	2.78	2.45	1.81	1.01	0.18	-0.51	-0.92	-0.96	-0.68	-0.20	0.33	2.51
65535
4.77	5.10	5.27	5.28	5.06	4.56	3.72	2.56	1.17	-0.33	-1.81	-3.26	-4.79	-6.61	-8.91	-11.78	-6.02
65535
-6.48	-9.59	-11.93	-12.90	-12.17	-9.82	-6.29	-2.23	1.73	5.18	7.94	10.00	11.37	12.04	11.96	11.13	-2.90
65535
6.51	4.57	2.46	0.48	-1.16	-2.31	-2.97	-3.18	-3.03	-2.60	-1.96	-1.14	-0.17	0.82	1.65	2.03	-11.30
65535
10.11	8.99	7.12	4.69	1.92	-1.00	-3.92	-6.62	-8.73	-9.82	-9.47	-7.46	-3.90	0.79	6.02	11.21	3.76
65535
0.76	4.39	6.75	7.66	7.11	5.32	2.73	-0.13	-2.73	-4.69	-5.79	-6.03	-5.51	-4.49	-3.25	-2.12	-3.56
65535
5.99	6.34	6.27	5.96	5.53	5.03	4.36	3.34	1.82	-0.25	-2.79	-5.51	-7.99	-9.66	-9.97	-8.51	16.00
65535
-24.72	-19.78	-13.88	-7.76	-2.11	2.60	6.15	8.47	9.58	9.58	8.67	7.21	5.61	4.23	3.28	2.83	30.87
65535
-12.03	-11.58	-10.64	-9.19	-7.26	-4.99	-2.63	-0.38	1.64	3.45	5.12	6.70	8.21	9.67	11.12	12.75	84.17
65535
-38.44	-35.47	-31.28	-25.61	-18.46	-10.04	-0.76	8.83	18.00	25.78	31.00	32.36	28.82	19.94	6.22	-10.90	-3.50
65535
58.34	40.72	25.57	13.72	5.16	-0.66	-4.49	-6.97	-8.52	-9.52	-10.44	-11.95	-14.72	-19.13	-25.09	-31.99	-71.98
65535
29.30	22.18	14.99	7.32	-0.92	-9.15	-16.09	-20.32	-21.02	-18.36	-13.39	-7.35	-1.09	5.13	11.36	17.39	-78.28
65535
28.77	31.73	31.58	28.02	21.55	13.25	4.28	-4.44	-12.23	-18.51	-22.68	-24.26	-23.32	-20.60	-17.52	-15.56	-82.69
65535
-11.32	-13.73	-17.64	-21.91	-25.48	-27.66	-28.10	-26.44	-22.18	-14.75	-3.84	10.23	26.45	43.34	59.39	73.57	28.62
65535
-25.84	-16.07	-8.06	-1.53	3.55	6.99	8.63	8.49	6.87	4.36	1.72	-0.20	-0.71	0.55	3.54	7.78	49.45
65535
-8.24	-3.46	0.97	5.00	8.70	11.98	14.44	15.47	14.47	11.15	5.66	-1.36	-9.04	-16.38	-22.55	-26.82	32.84
65535
-12.12	-11.54	-8.67	-4.12	1.21	6.28	10.16	12.20	12.20	10.36	7.18	3.26	-0.89	-4.92	-8.65	-11.99	6.35
65535
11.68	9.45	7.88	6.90	6.28	5.71	4.81	3.35	1.28	-1.25	-3.95	-6.52	-8.76	-10.63	-12.28	-13.96	-6.44
65535
-3.18	-5.70	-8.75	-12.05	-15.02	-16.93	-17.04	-14.87	-10.40	-4.07	3.32	10.80	17.49	22.72	26.10	27.50	8.11
65535
12.54	10.69	7.93	4.85	1.95	-0.43	-2.15	-3.22	-3.75	-3.90	-3.81	-3.67	-3.65	-3.87	-4.39	-5.19	-11.62
65535
13.54	12.37	10.99	9.32	7.32	5.00	2.53	0.16	-1.86	-3.42	-4.64	-5.84	-7.45	-9.74	-12.65	-15.69	-0.66
65535
-28.97	-29.66	-28.00	-23.77	-17.31	-9.47	-1.30	6.17	12.21	16.46	18.90	19.72	19.21	17.66	15.40	12.83	10.46
65535
-0.69	-2.44	-3.23	-2.98	-1.90	-0.41	1.07	2.22	2.94	3.19	3.01	2.42	1.42	0.06	-1.52	-3.15	-7.77
65535
13.52	12.04	10.57	8.96	7.10	4.99	2.74	0.51	-1.52	-3.28	-4.81	-6.24	-7.82	-9.74	-12.12	-14.86	-1.59
65535
-23.75	-25.82	-26.54	-25.31	-21.81	-16.17	-8.96	-1.02	6.70	13.38	18.50	21.84	23.44	23.48	22.20	19.90	9.38
65535
6.03	3.02	0.49	-1.09	-1.53	-0.99	0.05	0.98	1.40	1.17	0.48	-0.39	-1.21	-1.93	-2.72	-3.80	-12.75
65535
16.81	14.82	12.45	9.88	7.29	4.85	2.61	0.57	-1.35	-3.31	-5.44	-7.81	-10.33	-12.64	-14.17	-14.24	13.31
65535
-38.30	-33.93	-27.34	-19.11	-10.17	-1.54	5.90	11.59	15.32	17.19	17.48	16.53	14.77	12.60	10.42	8.61	19.53
65535
1.25	0.92	1.31	2.15	3.06	3.71	3.88	3.54	2.79	1.78	0.57	-0.85	-2.58	-4.68	-7.11	-9.74	-8.08
65535
15.24	12.80	10.65	8.75	6.97	5.11	3.07	0.84	-1.49	-3.74	-5.74	-7.42	-8.83	-10.19	-11.87	-14.19	-11.13
65535
-14.28	-18.07	-21.90	-24.87	-25.93	-24.29	-19.70	-12.53	-3.68	5.69	14.47	21.84	27.36	30.88	32.51	32.47	12.53
65535
7.46	5.24	2.68	0.26	-1.62	-2.79	-3.25	-3.12	-2.58	-1.76	-0.84	0.01	0.56	0.62	0.09	-0.92	-2.31
65535
12.66	11.38	10.18	8.99	7.62	5.87	3.73	1.36	-1.01	-3.16	-5.01	-6.65	-8.27	-10.12	-12.40	-15.21	-6.30
65535
-14.43	-17.71	-20.48	-22.03	-21.66	-19.00	-14.05	-7.33	0.32	7.89	14.47	19.46	22.66	24.16	24.28	23.40	10.31
65535
5.26	3.34	1.28	-0.68	-2.25	-3.22	-3.48	-3.04	-2.07	-0.84	0.36	1.26	1.68	1.57	0.93	-0.13	-5.16
65535
14.00	12.46	10.77	8.90	6.84	4.56	2.12	-0.31	-2.53	-4.37	-5.80	-6.92	-7.91	-9.02	-10.46	-12.34	-11.55
65535
-8.33	-11.15	-14.21	-17.13	-19.29	-19.93	-18.39	-14.34	-7.98	-0.05	8.32	16.01	22.18	26.41	28.70	29.25	8.68
65535
8.12	6.09	3.31	0.31	-2.33	-4.06	-4.58	-3.99	-2.69	-1.26	-0.17	0.37	0.45	0.31	0.15	-0.03	-8.14
65535
16.40	15.50	13.84	11.39	8.34	5.05	1.91	-0.78	-2.94	-4.65	-6.11	-7.57	-9.27	-11.32	-13.69	-16.10	0.01
65535
-26.20	-27.02	-26.09	-23.03	-17.87	-11.08	-3.47	4.02	10.57	15.59	18.77	20.11	19.77	18.09	15.47	12.37	5.64
65535
3.62	0.91	-1.08	-2.19	-2.41	-1.92	-1.01	0.02	0.88	1.42	1.60	1.46	1.07	0.40	-0.64	-2.14	-15.34
65535
16.81	14.35	11.69	9.09	6.77	4.82	3.18	1.66	0.03	-1.91	-4.30	-7.15	-10.25	-13.22	-15.41	-16.14	4.32
65535
-34.43	-30.68	-24.70	-17.07	-8.72	-0.62	6.38	11.72	15.20	16.82	16.79	15.38	12.96	9.95	6.86	4.20	6.28
65535
0.43	-0.37	-0.25	0.43	1.25	1.85	2.09	2.02	1.79	1.54	1.27	0.79	-0.15	-1.75	-4.04	-6.89	-17.67
65535
13.99	11.07	8.60	6.63	5.04	3.51	1.69	-0.62	-3.43	-6.44	-9.11	-10.77	-10.72	-8.46	-3.85	2.81	12.30
65535
-19.18	-10.90	-3.33	2.72	6.80	8.91	9.29	8.31	6.42	4.01	1.46	-0.87	-2.66	-3.66	-3.86	-3.40	5.67
65535
4.03	4.85	5.46	5.78	5.85	5.73	5.39	4.74	3.57	1.73	-0.78	-3.77	-6.90	-9.77	-12.09	-13.77	-13.70
65535
4.43	3.44	2.27	0.62	-1.64	-4.43	-7.45	-10.16	-11.88	-11.90	-9.71	-5.17	1.36	9.10	17.02	24.16	11.81
65535
4.30	8.11	10.00	10.11	8.70	6.13	2.86	-0.58	-3.66	-5.97	-7.31	-7.72	-7.42	-6.69	-5.81	-4.99	-1.89
65535
9.39	9.83	9.98	9.69	8.81	7.21	4.91	2.09	-0.89	-3.63	-5.85	-7.51	-8.79	-10.04	-11.59	-13.59	-3.59
65535
-14.28	-16.74	-18.80	-19.96	-19.75	-17.86	-14.16	-8.85	-2.37	4.62	11.41	17.36	22.00	25.03	26.36	26.02	9.82
65535
10.87	8.10	4.84	1.65	-1.00	-2.80	-3.69	-3.79	-3.34	-2.62	-1.83	-1.16	-0.75	-0.74	-1.28	-2.46	-12.49
65535
17.99	15.57	12.84	10.14	7.78	5.88	4.34	2.85	1.01	-1.47	-4.72	-8.56	-12.52	-15.89	-17.79	-17.44	6.65
65535
-33.49	-27.71	-19.88	-11.08	-2.51	4.81	10.28	13.70	15.19	14.96	13.32	10.63	7.32	3.98	1.19	-0.64	5.08
65535
0.23	0.47	1.28	2.25	3.06	3.57	3.79	3.79	3.57	3.03	1.98	0.24	-2.20	-5.20	-8.40	-11.44	-18.07
65535
9.11	7.06	5.42	3.89	2.09	-0.26	-3.27	-6.71	-10.00	-12.27	-12.57	-10.21	-5.06	2.35	10.94	19.42	12.62
65535
-4.03	1.31	4.61	6.10	6.13	5.08	3.30	1.14	-1.02	-2.81	-3.97	-4.38	-4.12	-3.40	-2.45	-1.52	-0.48
65535
12.28	12.61	12.43	11.71	10.40	8.51	6.04	3.09	-0.20	-3.61	-6.82	-9.57	-11.73	-13.41	-14.95	-16.83	-5.69
65535
-14.18	-17.37	-20.68	-23.17	-23.77	-21.67	-16.70	-9.39	-0.81	7.76	15.21	20.87	24.58	26.46	26.82	25.98	10.97
65535
7.61	5.40	3.08	1.08	-0.36	-1.14	-1.43	-1.48	-1.51	-1.59	-1.66	-1.61	-1.42	-1.25	-1.43	-2.29	-8.99
65535
15.96	13.50	10.65	7.88	5.61	4.02	3.01	2.23	1.20	-0.49	-3.07	-6.43	-10.13	-13.41	-15.35	-15.16	8.09
65535
-29.52	-24.37	-17.44	-9.73	-2.28	4.04	8.78	11.79	13.15	13.03	11.66	9.31	6.43	3.60	1.37	0.12	10.08
65535
-2.05	-1.36	-0.19	1.11	2.30	3.31	4.08	4.53	4.53	3.92	2.63	0.69	-1.74	-4.48	-7.28	-9.94	-12.47
65535
10.29	8.41	6.98	5.86	4.85	3.69	2.15	0.12	-2.38	-5.11	-7.60	-9.23	-9.33	-7.46	-3.49	2.22	11.64
65535
-15.18	-8.34	-2.23	2.61	5.92	7.71	8.14	7.42	5.77	3.51	0.97	-1.41	-3.23	-4.20	-4.18	-3.31	8.39
65535
1.35	2.86	4.09	4.79	4.94	4.65	4.10	3.40	2.53	1.36	-0.24	-2.30	-4.65	-7.03	-9.14	-10.79	-11.29
65535
7.69	6.73	5.72	4.32	2.36	-0.15	-3.02	-5.88	-8.28	-9.69	-9.64	-7.82	-4.17	1.03	7.18	13.56	11.39
65535
-3.28	1.44	4.70	6.45	6.78	5.91	4.12	1.75	-0.78	-3.04	-4.63	-5.30	-5.08	-4.18	-3.00	-1.89	3.78
65535
6.46	6.72	6.53	5.99	5.20	4.24	3.10	1.79	0.30	-1.34	-3.04	-4.70	-6.18	-7.44	-8.43	-9.21	-12.65
65535
6.55	5.81	4.80	3.31	1.18	-1.63	-4.88	-8.07	-10.51	-11.42	-10.25	-6.86	-1.61	4.77	11.37	17.38	9.63
65535
-0.04	3.42	5.42	6.01	5.30	3.53	1.11	-1.42	-3.51	-4.77	-5.05	-4.50	-3.39	-2.02	-0.63	0.61	2.05
65535
9.14	9.64	9.59	8.97	7.87	6.46	4.86	3.07	1.01	-1.39	-4.09	-6.88	-9.46	-11.56	-13.06	-14.09	-13.57
65535
0.67	-0.36	-1.87	-3.98	-6.56	-9.27	-11.56	-12.77	-12.33	-9.81	-5.19	1.15	8.39	15.56	21.73	26.26	10.37
65535
5.03	6.04	5.70	4.42	2.54	0.38	-1.72	-3.41	-4.39	-4.52	-3.87	-2.75	-1.57	-0.73	-0.44	-0.67	-1.35
65535
10.45	9.69	8.90	8.05	7.03	5.64	3.76	1.45	-1.09	-3.55	-5.64	-7.21	-8.29	-9.04	-9.69	-10.44	-10.44
65535
-2.29	-3.50	-5.02	-6.83	-8.85	-10.78	-12.10	-12.21	-10.54	-6.91	-1.54	4.89	11.47	17.35	21.91	24.90	8.08
65535
7.83	7.94	6.99	5.23	2.95	0.50	-1.78	-3.53	-4.54	-4.78	-4.42	-3.72	-2.95	-2.31	-1.86	-1.58	-1.67
65535
8.30	8.28	8.06	7.53	6.57	5.11	3.20	1.00	-1.24	-3.23	-4.81	-5.95	-6.79	-7.58	-8.56	-9.85	-6.94
65535
-6.23	-8.20	-10.33	-12.38	-13.96	-14.53	-13.60	-10.84	-6.31	-0.50	5.78	11.66	16.43	19.72	21.46	21.86	7.89
65535
6.41	5.09	3.36	1.46	-0.38	-1.96	-3.12	-3.72	-3.68	-3.05	-1.99	-0.78	0.25	0.84	0.86	0.35	-3.56
65535
10.93	9.88	8.76	7.55	6.15	4.47	2.53	0.46	-1.57	-3.38	-4.88	-6.11	-7.13	-8.09	-9.14	-10.45	-3.82
65535
-11.83	-13.71	-15.55	-16.83	-16.93	-15.34	-11.88	-6.77	-0.63	5.69	11.35	15.75	18.59	19.86	19.75	18.56	5.03
65535
7.73	5.25	2.59	0.06	-2.00	-3.35	-3.84	-3.50	-2.58	-1.38	-0.28	0.49	0.80	0.64	0.11	-0.72	-8.76
65535
11.99	10.63	8.96	6.94	4.64	2.21	-0.05	-1.85	-3.01	-3.52	-3.67	-3.91	-4.67	-6.17	-8.24	-10.29	1.96
65535
-22.22	-21.82	-19.38	-15.02	-9.30	-3.08	2.75	7.55	10.92	12.83	13.37	12.74	11.19	8.99	6.46	4.01	3.36
65535
0.61	-0.64	-1.04	-0.69	0.16	1.13	1.91	2.32	2.33	2.01	1.46	0.76	-0.19	-1.49	-3.22	-5.38	-14.35
65535
9.95	7.66	5.74	4.37	3.52	2.94	2.33	1.36	-0.12	-2.09	-4.31	-6.35	-7.69	-7.81	-6.33	-3.16	5.17
65535
-18.07	-12.54	-6.77	-1.43	2.99	6.19	8.06	8.64	8.06	6.54	4.41	2.04	-0.16	-1.87	-2.89	-3.19	0.80
65535
1.48	2.20	3.09	3.93	4.55	4.81	4.69	4.16	3.21	1.84	0.05	-2.13	-4.59	-7.08	-9.30	-10.96	-14.54
65535
3.35	2.83	2.43	1.74	0.41	-1.65	-4.23	-6.88	-8.95	-9.75	-8.77	-5.73	-0.81	5.43	12.16	18.49	8.01
65535
1.15	4.80	6.80	7.29	6.53	4.80	2.43	-0.23	-2.77	-4.77	-5.91	-6.07	-5.36	-4.13	-2.82	-1.79	-0.07
65535
6.91	7.17	7.27	7.31	7.25	6.83	5.80	3.97	1.43	-1.46	-4.27	-6.63	-8.41	-9.76	-10.97	-12.40	-5.68
65471
-8.65	-10.99	-13.59	-16.01	-17.64	-17.83	-16.13	-12.37	-6.80	7.25	14.14	19.98	24.29	26.81	27.47	8.14
65535
12.65	10.34	7.25	3.91	0.83	-1.69	-3.46	-4.45	-4.72	-4.44	-3.85	-3.19	-2.67	-2.34	-2.15	-2.03	-7.20
65535
13.30	12.99	12.08	10.40	7.97	5.12	2.27	-0.18	-2.10	-3.59	-4.91	-6.37	-8.17	-10.38	-12.92	-15.52	-0.30
65535
-24.64	-25.88	-25.50	-23.01	-18.33	-11.88	-4.51	2.78	9.10	13.96	17.23	19.06	19.64	19.10	17.58	15.30	9.37
65535
2.99	0.52	-1.25	-1.98	-1.65	-0.54	0.90	2.18	2.94	3.03	2.49	1.44	0.02	-1.69	-3.65	-5.82	-13.33
65535
14.54	12.15	9.86	7.79	6.02	4.52	3.20	1.88	0.38	-1.48	-3.80	-6.53	-9.41	-11.98	-13.57	-13.53	4.54
65535
-29.27	-24.97	-18.84	-11.60	-4.16	2.62	8.06	11.78	13.68	13.91	12.74	10.54	7.76	4.86	2.34	0.58	8.71
65535
-4.33	-4.05	-2.93	-1.34	0.38	1.96	3.24	4.15	4.63	4.59	3.90	2.52	0.53	-1.89	-4.44	-6.87	-9.06
65535
8.73	6.82	5.11	3.48	1.82	0.04	-1.97	-4.20	-6.46	-8.33	-9.21	-8.44	-5.59	-0.66	5.86	13.07	13.98
65535
-3.06	2.70	6.85	9.28	10.08	9.47	7.65	4.88	1.50	-2.03	-5.20	-7.54	-8.83	-9.11	-8.67	-7.90	-0.80
65535
7.60	8.04	8.13	7.85	7.22	6.21	4.74	2.81	0.52	-1.91	-4.21	-6.21	-7.88	-9.37	-10.90	-12.68	-8.70
65535
-6.91	-9.35	-12.00	-14.59	-16.72	-17.84	-17.29	-14.57	-9.53	-2.57	5.44	13.38	20.19	25.21	28.13	29.04	7.33
65535
12.16	9.91	6.67	2.95	-0.66	-3.63	-5.60	-6.43	-6.22	-5.26	-3.83	-2.22	-0.69	0.54	1.21	1.15	-9.30
65535
16.87	15.20	12.92	10.36	7.76	5.36	3.20	1.23	-0.71	-2.80	-5.21	-7.94	-10.83	-13.54	-15.55	-16.27	3.22
65535
-27.63	-24.31	-18.89	-11.91	-4.28	2.92	8.73	12.56	14.28	14.13	12.58	10.13	7.21	4.18	1.35	-1.02	-0.88
65535
1.41	0.56	0.53	1.16	2.20	3.31	4.14	4.40	3.95	2.85	1.24	-0.67	-2.75	-4.97	-7.37	-10.01	-11.96
65535
-1.78	-4.77	-7.80	-10.76	-13.48	-15.61	-16.66	-15.98	-13.07	-7.77	-0.49	7.89	16.21	23.41	28.74	31.95	13.37
65535
7.84	7.46	5.91	3.63	1.00	-1.57	-3.71	-5.12	-5.60	-5.18	-4.05	-2.52	-0.95	0.35	1.16	1.40	-0.12
65535
14.59	13.82	12.69	11.24	9.50	7.45	5.07	2.40	-0.48	-3.44	-6.42	-9.32	-12.00	-14.19	-15.50	-15.48	11.01
65535
-24.88	-21.36	-16.26	-10.15	-3.75	2.17	7.01	10.37	12.12	12.33	11.25	9.24	6.70	4.04	1.60	-0.41	7.45
65535
1.76	1.08	1.11	1.76	2.77	3.80	4.46	4.46	3.68	2.22	0.33	-1.69	-3.64	-5.49	-7.33	-9.31	-6.26
65535
2.13	-0.45	-3.28	-6.21	-9.03	-11.41	-12.91	-13.02	-11.32	-7.65	-2.28	4.14	10.67	16.41	20.75	23.47	10.72
65535
7.72	7.72	6.81	5.24	3.22	1.02	-1.05	-2.66	-3.60	-3.83	-3.54	-3.05	-2.71	-2.84	-3.58	-4.89	-8.68
65535
12.80	10.92	9.09	7.46	6.10	4.94	3.89	2.75	1.30	-0.70	-3.40	-6.63	-9.95	-12.58	-13.62	-12.35	10.09
65535
-27.25	-21.11	-13.56	-5.75	1.21	6.57	10.04	11.75	12.01	11.15	9.38	6.88	3.86	0.70	-2.04	-3.84	7.30
65535
-1.57	-0.88	0.60	2.30	3.68	4.43	4.44	3.83	2.76	1.42	-0.03	-1.46	-2.80	-4.07	-5.44	-7.28	-12.81
65535
10.10	6.12	0.87	-5.19	-11.11	-15.66	-17.75	-16.77	-12.90	-6.99	-0.25	6.16	11.44	15.27	17.72	18.99	6.97
65535
-0.41	-0.69	-1.35	-2.11	-2.71	-2.92	-2.64	-1.86	-0.71	0.65	1.97	2.98	3.47	3.26	2.33	0.79	-10.83
65535
16.63	14.44	12.16	9.81	7.35	4.69	1.76	-1.42	-4.74	-7.92	-10.57	-12.14	-12.16	-10.30	-6.51	-1.11	8.16
65535
-13.69	-7.07	-1.00	3.91	7.30	9.11	9.44	8.54	6.67	4.12	1.19	-1.81	-4.53	-6.60	-7.74	-7.86	-2.34
65535
3.35	4.49	5.57	6.21	6.24	5.68	4.74	3.54	2.19	0.67	-1.08	-3.07	-5.34	-7.94	-10.92	-14.26	-4.47
65535
-15.64	-18.87	-21.15	-21.80	-20.33	-16.67	-11.19	-4.57	2.39	8.91	14.43	18.57	21.18	22.25	21.93	20.55	7.30
65535
6.70	4.37	2.17	0.42	-0.72	-1.19	-1.07	-0.54	0.13	0.63	0.70	0.19	-0.84	-2.22	-3.70	-5.09	-11.45
65535
12.40	11.18	9.81	8.17	6.20	3.92	1.34	-1.50	-4.52	-7.51	-9.97	-11.26	-10.72	-7.95	-3.03	3.45	9.77
65535
-10.63	-3.83	1.84	5.91	8.25	8.93	8.21	6.39	3.85	1.01	-1.72	-3.99	-5.54	-6.33	-6.41	-5.96	0.05
65535
4.53	5.38	6.13	6.57	6.53	5.90	4.67	2.96	0.99	-1.00	-2.81	-4.41	-5.92	-7.59	-9.66	-12.29	-4.67
65535
-10.65	-13.83	-16.56	-18.19	-18.19	-16.24	-12.37	-6.98	-0.75	5.57	11.29	15.90	19.13	20.84	21.08	19.96	3.39
65535
9.62	6.57	3.21	0.06	-2.39	-3.86	-4.30	-3.85	-2.83	-1.58	-0.44	0.36	0.67	0.44	-0.28	-1.39	-12.06
65535
12.65	11.01	9.13	7.00	4.59	1.88	-1.07	-4.15	-7.08	-9.45	-10.73	-10.41	-8.21	-4.15	1.35	7.58	6.31
65535
-4.61	0.82	5.06	7.89	9.24	9.15	7.76	5.27	2.12	-1.17	-4.08	-6.22	-7.47	-7.96	-7.99	-7.82	-7.81
65535
6.49	6.68	6.87	7.01	6.98	6.61	5.78	4.46	2.74	0.68	-1.65	-4.29	-7.30	-10.60	-13.90	-16.59	2.24
65535
-27.99	-27.35	-24.38	-19.27	-12.64	-5.42	1.51	7.48	12.12	15.32	17.07	17.37	16.21	13.68	10.14	6.10	0.03
65535
4.45	1.42	-0.40	-0.92	-0.37	0.80	2.07	3.02	3.39	3.05	2.05	0.50	-1.43	-3.59	-5.87	-8.21	-13.13
65535
2.47	-0.25	-3.36	-6.85	-10.47	-13.70	-15.75	-15.86	-13.55	-8.83	-2.27	5.20	12.56	19.01	24.08	27.64	7.45
65535
9.09	9.66	8.82	6.75	3.80	0.55	-2.40	-4.50	-5.54	-5.61	-5.01	-4.15	-3.36	-2.83	-2.61	-2.69	-11.94
65535
16.29	15.50	14.24	12.48	10.25	7.57	4.52	1.18	-2.41	-6.14	-9.76	-12.85	-14.80	-14.97	-12.83	-8.24	10.99
65535
-24.48	-16.54	-8.44	-1.21	4.45	8.31	10.47	11.18	10.67	9.04	6.45	3.21	-0.15	-2.97	-4.72	-5.21	2.58
65535
3.77	4.88	5.95	6.54	6.48	5.85	4.83	3.60	2.20	0.64	-1.16	-3.23	-5.61	-8.35	-11.48	-14.98	-2.70
65407
-13.41	-16.97	-19.85	-21.41	-21.10	-18.58	-13.87	-7.43	7.48	14.14	19.30	22.58	23.90	23.49	21.76	9.57
65535
6.95	4.11	1.41	-0.79	-2.29	-2.94	-2.80	-1.98	-0.77	0.47	1.37	1.64	1.15	-0.04	-1.74	-3.71	-10.22
65535
13.99	11.83	9.59	7.25	4.80	2.27	-0.35	-3.09	-5.90	-8.55	-10.54	-11.19	-9.88	-6.26	-0.53	6.59	12.51
65535
-8.64	-1.81	3.60	7.23	9.05	9.23	8.00	5.70	2.68	-0.57	-3.56	-5.78	-6.97	-7.06	-6.24	-4.86	4.07
65535
5.11	6.42	7.29	7.59	7.32	6.51	5.24	3.63	1.74	-0.31	-2.44	-4.62	-6.87	-9.30	-12.05	-15.19	-1.26
65535
-13.29	-16.65	-19.33	-20.56	-19.71	-16.49	-11.13	-4.37	2.79	9.31	14.46	17.91	19.71	20.11	19.41	17.87	7.44
65535
6.95	4.30	1.53	-0.94	-2.70	-3.51	-3.37	-2.50	-1.27	-0.04	0.93	1.46	1.44	0.78	-0.55	-2.49	-12.40
65535
14.98	12.44	9.95	7.62	5.39	3.03	0.34	-2.79	-6.18	-9.36	-11.60	-12.16	-10.52	-6.58	-0.74	6.17	9.31
65535
-8.51	-2.23	2.75	6.18	8.06	8.53	7.76	5.94	3.37	0.43	-2.44	-4.81	-6.34	-6.89	-6.48	-5.35	-0.59
65535
6.04	7.46	8.41	8.63	8.04	6.73	4.94	2.95	0.99	-0.86	-2.66	-4.58	-6.84	-9.62	-12.94	-16.63	-1.97
65535
-18.80	-21.55	-22.73	-21.79	-18.52	-13.20	-6.52	0.60	7.25	12.71	16.56	18.67	19.15	18.23	16.26	13.63	2.52
65407
6.25	3.47	1.10	-0.64	-1.63	-1.88	-1.53	-0.81	0.64	0.93	0.78	0.17	-0.85	-2.21	-3.81	-13.44
65535
10.38	8.46	6.38	4.08	1.45	-1.56	-4.85	-8.09	-10.72	-12.03	-11.41	-8.52	-3.51	3.00	10.10	16.84	8.07
65535
0.96	5.06	7.53	8.44	7.97	6.33	3.82	0.85	-2.09	-4.51	-6.10	-6.76	-6.61	-5.90	-4.96	-4.03	-3.62
65535
8.37	8.73	8.65	8.10	7.11	5.77	4.23	2.58	0.90	-0.84	-2.71	-4.81	-7.23	-9.99	-12.96	-15.86	0.49
65535
-22.34	-23.58	-23.12	-20.53	-15.80	-9.37	-2.10	4.93	10.72	14.66	16.64	16.95	16.07	14.46	12.40	10.07	6.06
65535
2.09	-0.11	-1.68	-2.25	-1.68	-0.18	1.73	3.44	4.41	4.39	3.40	1.67	-0.48	-2.75	-4.98	-7.10	-10.49
65535
7.41	5.42	3.43	1.43	-0.63	-2.78	-5.04	-7.27	-9.11	-10.02	-9.37	-6.69	-1.90	4.55	11.79	18.77	12.35
65535
1.75	5.84	8.09	8.68	7.96	6.27	3.90	1.16	-1.64	-4.09	-5.90	-6.85	-6.99	-6.58	-6.00	-5.56	-3.56
65535
10.44	10.16	9.58	8.80	7.87	6.75	5.35	3.60	1.48	-0.94	-3.55	-6.23	-8.95	-11.78	-14.75	-17.78	-2.60
65535
-21.47	-23.35	-23.77	-22.24	-18.60	-13.14	-6.48	0.56	7.14	12.61	16.57	18.91	19.75	19.34	18.02	16.13	7.24
65535
4.13	2.01	0.20	-1.06	-1.62	-1.48	-0.81	0.13	1.01	1.58	1.68	1.26	0.37	-0.88	-2.41	-4.13	-12.99
65535
14.23	12.26	10.17	7.92	5.45	2.72	-0.25	-3.36	-6.39	-8.99	-10.70	-11.05	-9.65	-6.31	-1.20	5.20	9.49
65535
-10.35	-3.74	1.81	5.80	8.05	8.62	7.78	5.89	3.39	0.71	-1.77	-3.76	-5.11	-5.81	-5.94	-5.63	0.12
65535
4.32	5.04	5.75	6.28	6.49	6.25	5.51	4.25	2.51	0.39	-1.98	-4.44	-6.82	-9.05	-11.17	-13.37	-6.91
65535
-8.83	-11.72	-14.79	-17.50	-19.06	-18.73	-16.07	-11.18	-4.64	2.63	9.67	15.75	20.44	23.56	25.14	25.29	9.40
65535
7.90	5.96	3.60	1.27	-0.63	-1.92	-2.58	-2.71	-2.48	-2.04	-1.51	-1.01	-0.67	-0.59	-0.89	-1.66	-11.03
65535
17.46	15.58	13.16	10.37	7.46	4.71	2.33	0.36	-1.33	-3.00	-4.92	-7.28	-10.04	-12.92	-15.36	-16.61	4.65
65535
-31.63	-28.59	-23.21	-16.05	-8.10	-0.45	6.01	10.80	13.83	15.23	15.24	14.11	12.08	9.49	6.81	4.47	5.85
65535
1.62	0.78	0.65	1.00	1.56	2.14	2.62	2.92	2.95	2.62	1.81	0.45	-1.48	-3.86	-6.55	-9.27	-16.25
65535
10.35	8.29	6.70	5.47	4.31	2.93	1.05	-1.39	-4.19	-6.92	-8.98	-9.71	-8.60	-5.41	-0.27	6.32	11.53
65535
-14.17	-6.98	-0.64	4.33	7.64	9.23	9.19	7.72	5.17	2.03	-1.11	-3.64	-5.12	-5.41	-4.72	-3.53	5.43
65535
3.76	4.61	5.04	5.19	5.22	5.18	4.96	4.32	3.09	1.23	-1.09	-3.65	-6.20	-8.56	-10.64	-12.42	-12.96
65535
4.46	3.13	1.82	0.31	-1.63	-4.08	-6.90	-9.65	-11.60	-11.92	-9.95	-5.45	1.20	9.11	17.11	24.12	14.90
65535
1.57	4.97	6.62	6.81	5.82	3.92	1.40	-1.32	-3.70	-5.28	-5.80	-5.33	-4.24	-2.95	-1.74	-0.68	16.07
65535
-0.80	0.37	1.65	2.84	3.65	3.85	3.33	2.20	0.71	-0.87	-2.27	-3.24	-3.58	-3.27	-2.55	-2.05	43.76
65535
-30.25	-32.33	-35.90	-39.90	-42.51	-41.69	-35.91	-24.80	-9.30	8.61	26.44	41.78	52.68	57.80	56.49	48.86	32.19
65535
47.43	30.78	12.76	-4.25	-18.22	-27.95	-33.15	-34.30	-32.22	-27.54	-20.34	-10.16	3.49	20.35	38.57	54.76	-29.89
65535
126.73	126.69	115.11	93.04	63.85	31.85	1.02	-25.86	-47.30	-62.64	-71.79	-75.20	-74.13	-70.56	-66.71	-64.09	-72.11
65535
-20.61	-19.35	-16.12	-9.46	0.60	12.33	23.01	29.91	31.35	27.10	18.24	6.58	-5.91	-17.51	-26.92	-33.25	-106.56
65535
-1.57	-0.91	2.39	6.91	10.95	13.04	12.37	9.04	3.90	-1.81	-6.89	-10.47	-12.06	-11.54	-8.92	-4.38	-38.24
65535
-66.56	-59.36	-51.91	-45.10	-39.55	-35.33	-31.77	-27.49	-20.78	-10.05	5.61	26.14	50.45	76.65	102.61	126.46	158.35
65535
-49.45	-32.06	-17.31	-4.22	7.86	18.87	27.94	33.71	34.97	31.18	22.75	10.99	-2.35	-15.64	-27.94	-39.36	-10.75
65535
118.19	105.04	89.13	70.04	48.34	25.32	2.50	-18.71	-37.17	-51.83	-61.70	-66.11	-65.09	-59.81	-52.45	-45.65	-25.57
65535
-26.67	-25.82	-27.36	-29.27	-29.40	-26.46	-20.34	-12.02	-2.81	6.30	14.89	22.99	30.62	37.41	42.60	45.28	-13.20
65535
32.54	29.19	23.61	16.93	10.24	4.31	-0.59	-4.54	-7.76	-10.43	-12.62	-14.31	-15.52	-16.35	-17.00	-17.70	-40.18
65535
8.39	7.28	6.15	5.22	4.66	4.48	4.42	4.05	2.87	0.58	-2.78	-6.68	-10.08	-11.75	-10.60	-6.17	0.43
65535
-39.41	-30.24	-20.78	-12.40	-5.91	-1.37	1.74	4.12	6.28	8.41	10.44	12.25	13.86	15.49	17.49	20.09	31.45
65535
-7.68	-4.01	-0.33	2.92	5.35	6.73	7.02	6.33	4.85	2.86	0.64	-1.55	-3.52	-5.17	-6.57	-7.90	8.62
65535
13.36	11.24	8.34	4.60	0.19	-4.49	-8.88	-12.26	-13.97	-13.56	-10.92	-6.38	-0.60	5.57	11.39	16.30	24.20
65535
4.48	7.00	8.28	8.33	7.23	5.16	2.48	-0.33	-2.79	-4.58	-5.61	-5.98	-5.97	-5.85	-5.85	-6.07	5.02
65535
12.62	11.87	10.84	9.53	7.95	6.17	4.28	2.39	0.53	-1.37	-3.43	-5.86	-8.75	-12.09	-15.65	-18.97	4.06
65535
-20.52	-21.61	-20.84	-18.11	-13.68	-8.18	-2.39	2.98	7.46	10.83	13.10	14.36	14.78	14.56	13.95	13.24	12.94
65535
3.81	3.55	3.56	3.73	3.92	4.01	3.92	3.58	2.87	1.67	-0.06	-2.23	-4.62	-7.03	-9.30	-11.42	-8.69
65535
8.15	6.05	3.86	1.58	-0.79	-3.19	-5.56	-7.67	-9.16	-9.58	-8.48	-5.65	-1.19	4.45	10.60	16.51	18.98
65535
-6.07	-2.14	0.61	2.31	3.18	3.37	2.96	2.02	0.75	-0.57	-1.58	-2.02	-1.81	-1.13	-0.28	0.41	5.91
65535
13.79	13.66	13.16	12.36	11.25	9.75	7.73	5.14	2.02	-1.46	-5.07	-8.68	-12.31	-16.11	-20.28	-24.88	-22.71
65535
-1.05	-5.47	-8.83	-10.56	-10.40	-8.54	-5.52	-2.03	1.36	4.24	6.46	7.95	8.70	8.71	8.05	6.90	-10.81
65535
-6.35	-7.49	-8.13	-8.06	-7.28	-5.91	-4.11	-2.00	0.31	2.70	5.00	6.97	8.35	8.97	8.85	8.13	-11.44
65535
7.73	6.62	5.52	4.43	3.23	1.83	0.17	-1.68	-3.61	-5.39	-6.73	-7.24	-6.51	-4.17	-0.03	5.81	25.53
65535
-24.11	-16.61	-9.53	-3.56	0.92	3.91	5.66	6.56	6.93	6.92	6.58	5.88	4.82	3.44	1.90	0.35	16.03
65535
8.50	7.46	6.75	6.24	5.69	4.86	3.62	2.04	0.33	-1.31	-2.77	-4.17	-5.75	-7.76	-10.32	-13.38	-5.79
65535
5.00	1.33	-2.46	-6.26	-9.82	-12.67	-14.24	-13.96	-11.56	-7.19	-1.45	4.84	10.81	15.83	19.63	22.23	19.29
65535
-1.27	-0.44	-0.19	-0.35	-0.81	-1.40	-1.87	-1.98	-1.60	-0.74	0.38	1.45	2.21	2.50	2.30	1.73	3.54
65535
16.61	15.49	14.18	12.72	11.16	9.57	7.89	5.97	3.52	0.25	-3.99	-9.08	-14.59	-19.79	-23.88	-26.10	-2.58
65535
-19.85	-17.32	-12.83	-7.20	-1.44	3.53	7.10	9.08	9.60	9.01	7.69	6.00	4.15	2.35	0.72	-0.64	-6.26
65535
2.05	1.49	1.39	1.72	2.36	3.09	3.63	3.68	3.11	1.93	0.30	-1.54	-3.39	-5.11	-6.65	-7.99	-18.49
65535
2.99	1.65	-0.06	-2.37	-5.30	-8.52	-11.34	-12.92	-12.56	-9.99	-5.42	0.51	7.01	13.39	19.10	23.83	2.61
65535
6.24	8.38	9.08	8.41	6.61	4.09	1.32	-1.26	-3.34	-4.77	-5.56	-5.82	-5.75	-5.64	-5.75	-6.30	-15.61
65535
10.79	9.16	7.22	5.25	3.58	2.36	1.57	0.99	0.27	-0.89	-2.61	-4.78	-6.99	-8.66	-9.18	-8.07	0.97
65535
-21.73	-17.22	-11.67	-5.78	-0.23	4.46	7.99	10.28	11.30	11.03	9.52	6.94	3.63	0.10	-3.12	-5.55	-5.72
65535
-0.28	-0.73	-0.41	0.32	1.17	1.92	2.44	2.68	2.62	2.24	1.50	0.44	-0.91	-2.49	-4.25	-6.22	-4.05
65535
-10.09	-12.48	-14.84	-16.75	-17.63	-16.92	-14.27	-9.75	-3.75	2.97	9.57	15.32	19.71	22.46	23.52	22.97	1.36
65535
15.56	12.40	8.53	4.53	0.97	-1.67	-3.20	-3.79	-3.80	-3.67	-3.70	-3.94	-4.28	-4.57	-4.71	-4.74	-11.53
65535
8.09	7.85	7.30	6.25	4.58	2.15	-1.00	-4.56	-7.93	-10.34	-11.06	-9.69	-6.23	-1.15	4.84	10.97	8.92
65535
-3.82	0.90	4.43	6.62	7.44	6.90	5.19	2.63	-0.28	-2.99	-4.96	-5.85	-5.64	-4.64	-3.40	-2.52	-6.45
65535
12.92	12.09	10.58	8.82	7.18	5.84	4.69	3.45	1.77	-0.54	-3.47	-6.84	-10.33	-13.53	-15.88	-16.81	7.84
65535
-30.06	-26.77	-21.36	-14.43	-6.85	0.38	6.53	11.19	14.24	15.72	15.67	14.15	11.30	7.51	3.33	-0.56	1.60
57343
2.64	0.74	0.16	0.88	1.77	2.53	2.94	2.89	2.40	1.50	0.26	-1.32	-3.28	-5.67	-8.51	-8.01
65535
-2.13	-5.64	-9.20	-12.55	-15.28	-16.89	-16.85	-14.76	-10.52	-4.46	2.76	10.22	17.08	22.66	26.62	28.92	11.35
65535
10.32	9.81	8.26	5.94	3.13	0.17	-2.48	-4.43	-5.39	-5.35	-4.58	-3.53	-2.70	-2.42	-2.85	-3.90	-7.07
65535
13.05	11.37	9.64	7.95	6.32	4.71	3.01	1.10	-1.13	-3.67	-6.37	-8.84	-10.52	-10.86	-9.45	-6.26	6.40
65535
-15.10	-9.68	-4.24	0.59	4.39	6.94	8.22	8.32	7.37	5.59	3.26	0.69	-1.77	-3.79	-5.13	-5.65	-2.71
65535
3.72	4.59	5.69	6.61	7.00	6.67	5.66	4.14	2.34	0.42	-1.61	-3.78	-6.18	-8.84	-11.73	-14.68	0.18
65535
-20.27	-22.25	-22.97	-21.97	-19.01	-14.20	-8.02	-1.18	5.55	11.52	16.27	19.52	21.09	20.91	19.06	15.87	1.77
65535
10.29	6.19	2.62	-0.04	-1.65	-2.35	-2.37	-2.00	-1.45	-0.89	-0.51	-0.41	-0.67	-1.28	-2.19	-3.36	-11.72
65535
8.69	6.84	4.44	1.38	-2.25	-6.14	-9.71	-12.30	-13.25	-12.14	-8.91	-3.89	2.31	8.93	15.25	20.69	6.66
65535
6.47	9.10	10.06	9.38	7.28	4.13	0.51	-2.96	-5.70	-7.34	-7.75	-7.10	-5.79	-4.33	-3.20	-2.69	-9.95
65535
13.71	12.91	11.73	10.35	8.83	7.12	5.14	2.80	0.08	-2.96	-6.22	-9.46	-12.30	-14.21	-14.59	-12.96	9.07
65535
-28.19	-22.46	-15.42	-7.98	-1.03	4.66	8.68	10.92	11.59	11.00	9.55	7.58	5.41	3.34	1.68	0.72	7.01
65535
2.68	3.37	4.54	5.68	6.29	6.06	5.03	3.45	1.70	0.04	-1.48	-3.03	-4.83	-7.07	-9.75	-12.67	7.56
65535
-16.13	-18.67	-20.55	-21.46	-21.07	-19.06	-15.19	-9.49	-2.33	5.55	13.17	19.61	24.23	26.80	27.56	26.96	38.68
65535
-5.56	-7.25	-8.83	-10.00	-10.51	-10.19	-8.96	-6.80	-3.87	-0.37	3.41	7.22	10.85	14.18	17.12	19.57	53.47
65535
6.55	7.42	7.27	6.16	4.41	2.49	0.77	-0.65	-2.00	-3.54	-5.26	-6.74	-7.22	-6.12	-3.47	-0.13	10.68
65535
45.22	45.47	42.43	36.02	26.97	16.42	5.53	-4.74	-13.74	-21.02	-26.31	-29.54	-30.90	-30.92	-30.46	-30.46	-40.45
65535
19.41	16.46	11.99	6.65	1.32	-3.23	-6.55	-8.60	-9.61	-9.80	-9.26	-7.94	-5.74	-2.64	1.35	6.17	-2.11
65535
-26.48	-19.93	-12.66	-5.07	2.25	8.60	13.34	16.07	16.64	15.11	11.78	7.09	1.58	-4.18	-9.67	-14.46	-7.46
65535
-12.72	-14.72	-14.69	-12.46	-8.31	-3.06	2.14	6.21	8.57	9.28	8.90	8.11	7.30	6.46	5.31	3.66	-19.93
65535
14.21	12.55	11.71	11.88	12.59	12.97	12.15	9.74	5.94	1.32	-3.67	-8.91	-14.53	-20.52	-26.35	-31.09	-59.56
65535
5.86	5.61	7.25	9.47	10.86	10.52	8.40	5.07	1.30	-2.35	-5.77	-8.97	-11.78	-13.53	-13.03	-8.98	35.15
65535
-95.12	-81.86	-64.73	-45.27	-25.31	-6.50	9.99	23.48	33.69	40.42	43.57	43.27	39.99	34.60	28.19	21.66	-55.51
65535
106.06	99.84	92.85	84.01	72.36	57.35	39.04	18.02	-4.68	-27.83	-50.16	-70.45	-87.71	-101.27	-110.88	-116.61	-79.03
65535
-95.13	-93.52	-88.15	-78.81	-65.59	-49.13	-30.75	-12.04	5.70	22.07	37.60	53.43	70.49	88.97	108.15	126.74	101.14
65535
-36.65	-22.37	-10.61	-1.02	6.73	12.68	16.59	18.21	17.53	14.94	11.03	6.30	1.04	-4.77	-11.25	-18.41	32.83
65535
42.33	34.85	27.96	21.96	16.87	12.43	8.20	3.80	-1.04	-6.39	-12.17	-18.19	-24.20	-30.05	-35.61	-40.79	-12.15
65535
-0.49	-4.50	-7.61	-9.58	-10.30	-9.76	-8.12	-5.62	-2.56	0.79	4.13	7.18	9.70	11.49	12.49	12.80	0.44
65535
0.04	-0.34	-0.70	-0.93	-1.00	-0.90	-0.66	-0.24	0.33	1.00	1.59	1.89	1.69	0.89	-0.46	-2.20	-19.39
65535
15.63	13.43	10.93	8.05	4.77	1.23	-2.23	-5.24	-7.47	-8.75	-9.01	-8.34	-6.83	-4.68	-2.11	0.62	-8.61
65535
-7.56	-5.29	-3.41	-1.88	-0.60	0.49	1.40	2.03	2.32	2.25	1.95	1.60	1.40	1.44	1.71	2.10	-3.80
65535
-2.27	-1.82	-1.35	-0.84	-0.26	0.32	0.87	1.33	1.60	1.68	1.52	1.09	0.44	-0.29	-0.90	-1.14	12.59
65535
-17.17	-16.08	-14.24	-11.78	-8.91	-5.88	-2.89	-0.07	2.54	4.97	7.23	9.31	11.14	12.69	14.00	15.15	33.22
65535
-4.36	-3.19	-1.94	-0.69	0.42	1.27	1.77	1.94	1.84	1.63	1.39	1.15	0.82	0.29	-0.57	-1.81	17.23
65535
12.61	10.81	8.87	6.94	5.11	3.56	2.39	1.64	1.19	0.73	-0.18	-2.01	-5.08	-9.54	-15.24	-21.77	-35.94
65535
24.61	18.21	12.71	8.40	5.25	3.06	1.49	0.19	-1.18	-2.89	-5.12	-7.84	-10.82	-13.62	-15.73	-16.78	-37.18
65535
-15.40	-14.27	-12.51	-10.54	-8.67	-7.06	-5.72	-4.52	-3.20	-1.40	1.27	5.11	10.15	16.09	22.36	28.27	-3.10
65535
-0.83	2.86	5.20	6.27	6.25	5.27	3.47	1.09	-1.47	-3.73	-5.25	-5.77	-5.29	-4.10	-2.63	-1.27	-3.87
65535
0.50	1.08	1.33	1.33	1.17	0.88	0.53	0.22	0.08	0.12	0.26	0.25	-0.21	-1.23	-2.59	-3.71	18.57
65535
-26.19	-24.52	-20.91	-15.65	-9.47	-3.25	2.31	6.78	10.03	12.13	13.19	13.35	12.75	11.56	9.95	8.02	6.79
65535
17.56	14.98	12.04	8.78	5.32	1.88	-1.35	-4.11	-6.23	-7.57	-8.10	-7.97	-7.40	-6.68	-5.95	-5.25	14.71
65535
-12.41	-11.48	-10.40	-9.20	-7.94	-6.55	-4.88	-2.77	-0.20	2.68	5.60	8.25	10.45	12.10	13.15	13.57	10.83
65535
17.17	16.15	14.46	12.29	9.87	7.40	4.92	2.37	-0.38	-3.36	-6.52	-9.66	-12.63	-15.28	-17.53	-19.32	-14.58
65535
4.82	4.12	3.96	4.19	4.52	4.67	4.33	3.35	1.69	-0.48	-2.88	-5.10	-6.74	-7.45	-7.12	-5.84	-8.67
65535
-9.77	-7.39	-4.89	-2.47	-0.28	1.49	2.70	3.23	3.14	2.64	2.05	1.62	1.52	1.71	2.10	2.57	-6.26
65535
0.65	1.20	1.80	2.46	3.10	3.57	3.72	3.41	2.60	1.35	-0.21	-1.91	-3.54	-4.99	-6.15	-6.99	-6.73
65535
-7.07	-7.44	-7.72	-7.93	-7.96	-7.60	-6.62	-4.89	-2.46	0.49	3.64	6.69	9.40	11.62	13.34	14.55	8.24
65535
0.33	0.69	0.72	0.52	0.22	-0.02	-0.10	0.04	0.31	0.57	0.61	0.34	-0.18	-0.82	-1.38	-1.80	1.54
65535
4.55	4.14	3.50	2.59	1.49	0.29	-0.89	-2.00	-3.03	-3.85	-4.25	-3.99	-2.90	-1.01	1.41	3.95	4.29
65535
3.46	5.17	6.24	6.73	6.74	6.31	5.43	4.08	2.28	0.09	-2.36	-4.85	-7.23	-9.29	-10.88	-11.87	-6.05
65535
-1.91	-1.78	-1.38	-1.02	-0.94	-1.18	-1.54	-1.69	-1.35	-0.44	0.83	2.07	2.88	3.04	2.61	1.84	3.70
65535
-8.63	-8.93	-8.61	-7.63	-6.03	-3.94	-1.54	0.97	3.33	5.30	6.62	7.16	6.95	6.16	5.02	3.77	0.04
65535
6.20	5.00	3.77	2.51	1.24	0.09	-0.82	-1.36	-1.56	-1.51	-1.43	-1.50	-1.80	-2.33	-2.95	-3.55	-7.45
65535
3.42	2.96	2.46	1.79	0.82	-0.44	-1.94	-3.46	-4.71	-5.34	-5.05	-3.67	-1.33	1.69	4.91	7.88	2.29
65535
0.52	2.19	3.23	3.76	3.86	3.53	2.71	1.41	-0.22	-1.88	-3.17	-3.83	-3.81	-3.30	-2.67	-2.28	-4.81
65535
4.78	4.33	3.63	2.89	2.27	1.78	1.33	0.82	0.17	-0.59	-1.43	-2.31	-3.22	-4.12	-4.93	-5.40	1.13
65535
-11.12	-9.94	-7.67	-4.52	-0.96	2.42	5.10	6.77	7.37	7.02	5.90	4.23	2.17	-0.08	-2.31	-4.34	-5.28
65535
0.43	-0.75	-1.44	-1.68	-1.55	-1.23	-0.88	-0.62	-0.49	-0.36	-0.09	0.43	1.16	1.93	2.48	2.63	2.01
65535
-4.93	-5.51	-6.20	-6.84	-7.31	-7.48	-7.15	-6.12	-4.21	-1.41	2.03	5.67	9.03	11.78	13.75	14.98	4.57
65535
12.98	12.92	12.21	10.81	8.82	6.38	3.72	1.03	-1.59	-4.07	-6.39	-8.48	-10.26	-11.71	-12.82	-13.62	-14.66
65535
5.07	4.74	4.58	4.53	4.47	4.29	3.86	3.09	1.93	0.34	-1.63	-3.89	-6.16	-8.00	-8.88	-8.36	1.38
65535
-22.34	-18.91	-14.54	-9.82	-5.26	-1.24	2.03	4.51	6.25	7.35	7.97	8.29	8.48	8.69	9.02	9.55	3.71
65535
7.90	8.64	9.23	9.46	9.08	8.00	6.25	3.99	1.39	-1.38	-4.19	-6.95	-9.56	-11.93	-14.04	-15.90	-4.51
65535
-9.37	-10.92	-12.27	-13.17	-13.25	-12.16	-9.76	-6.18	-1.82	2.77	7.10	10.90	14.04	16.51	18.28	19.28	5.70
65535
9.21	8.52	7.20	5.62	4.19	3.14	2.51	2.07	1.52	0.56	-0.99	-3.16	-5.82	-8.74	-11.63	-14.27	-27.47
65535
16.65	14.71	12.84	10.74	8.16	5.04	1.47	-2.25	-5.80	-8.83	-11.06	-12.16	-11.85	-9.92	-6.36	-1.37	-1.06
65535
-21.80	-15.36	-9.01	-3.19	1.83	5.85	8.73	10.33	10.52	9.32	6.97	3.94	0.85	-1.71	-3.35	-3.95	-9.49
65535
4.75	5.53	6.46	7.22	7.61	7.52	6.90	5.73	4.02	1.80	-0.92	-4.08	-7.61	-11.33	-15.04	-18.56	-14.25
65535
-17.08	-20.14	-23.08	-25.69	-27.41	-27.27	-24.20	-17.56	-7.54	4.62	16.90	27.20	33.98	36.80	36.38	34.17	47.05
65535
-29.55	-31.04	-31.15	-30.00	-27.97	-25.28	-21.86	-17.34	-11.28	-3.27	6.82	18.83	32.14	45.63	57.87	67.42	9.57
65535
110.64	112.12	109.45	103.19	93.93	82.00	67.17	48.72	25.62	-2.89	-36.70	-74.36	-113.01	-148.90	-178.32	-198.64	-115.85
65535
-83.48	-84.49	-78.15	-66.78	-52.43	-36.71	-20.73	-5.28	9.14	22.33	34.43	46.01	57.82	70.76	85.49	102.13	45.41
65535
-41.26	-23.59	-7.97	4.00	11.54	14.92	15.30	14.09	12.35	10.47	8.25	5.29	1.38	-3.30	-8.30	-13.14	8.40
65535
19.52	15.76	12.53	9.66	6.95	4.07	0.68	-3.41	-8.04	-12.54	-15.85	-16.76	-14.42	-8.65	0.03	10.51	58.33
65535
-28.40	-17.92	-8.72	-1.20	4.48	8.26	10.17	10.34	9.09	6.96	4.58	2.50	1.06	0.22	-0.35	-1.05	31.68
65535
24.42	22.67	20.46	18.01	15.47	12.79	9.72	6.00	1.43	-3.87	-9.54	-15.09	-20.06	-24.21	-27.61	-30.58	-9.51
65535
7.66	4.36	0.49	-3.97	-8.78	-13.51	-17.47	-19.83	-19.74	-16.60	-10.28	-1.28	9.38	20.39	30.48	38.72	30.44
65535
4.67	8.14	9.36	8.68	6.60	3.68	0.61	-2.00	-3.72	-4.50	-4.60	-4.50	-4.62	-5.14	-5.92	-6.67	7.43
65535
15.86	15.64	15.39	14.63	12.92	10.11	6.37	2.12	-2.06	-5.72	-8.61	-10.80	-12.65	-14.70	-17.42	-21.08	-2.78
65535
-15.30	-19.87	-23.67	-25.70	-25.24	-21.96	-16.12	-8.41	0.22	8.77	16.36	22.31	26.25	28.05	27.92	26.32	16.53
65535
4.57	1.96	-0.23	-1.63	-2.16	-1.94	-1.25	-0.38	0.42	1.03	1.37	1.39	1.03	0.19	-1.21	-3.18	-9.06
65535
19.99	17.25	14.41	11.66	9.10	6.72	4.36	1.79	-1.22	-4.78	-8.73	-12.54	-15.43	-16.52	-15.12	-11.00	15.25
65535
-28.71	-20.43	-11.47	-2.93	4.28	9.52	12.51	13.32	12.32	10.04	7.05	3.88	0.90	-1.65	-3.65	-5.03	6.04
65535
3.43	3.27	3.61	4.24	4.89	5.29	5.20	4.47	3.14	1.31	-0.81	-3.03	-5.24	-7.45	-9.81	-12.52	-18.66
65535
8.94	5.03	0.44	-4.74	-10.17	-15.29	-19.27	-21.21	-20.27	-16.06	-8.75	0.85	11.47	21.72	30.43	36.89	16.62
65535
5.61	7.41	7.46	6.35	4.54	2.41	0.24	-1.73	-3.32	-4.39	-4.89	-4.87	-4.48	-3.91	-3.38	-3.08	-6.32
65535
19.73	18.96	17.43	15.14	12.21	8.90	5.51	2.26	-0.77	-3.63	-6.51	-9.66	-13.30	-17.51	-22.12	-26.60	2.36
65535
-38.75	-40.15	-38.62	-33.78	-25.93	-16.03	-5.39	4.74	13.43	20.20	24.92	27.71	28.75	28.27	26.56	24.00	12.52
65535
10.88	7.99	5.53	3.70	2.49	1.75	1.25	0.81	0.29	-0.38	-1.23	-2.37	-3.94	-6.04	-8.75	-11.99	-24.97
65535
21.90	18.20	14.61	11.27	8.15	5.08	1.76	-2.02	-6.26	-10.62	-14.36	-16.48	-16.06	-12.51	-5.86	3.20	11.74
65535
-23.20	-12.94	-3.90	3.16	7.93	10.45	10.95	9.87	7.66	4.83	1.88	-0.77	-2.83	-4.12	-4.60	-4.30	4.52
65535
3.87	5.23	6.68	7.86	8.44	8.23	7.21	5.48	3.26	0.73	-1.98	-4.82	-7.78	-10.84	-14.04	-17.48	-13.46
65535
-3.31	-7.60	-12.23	-16.73	-20.28	-21.90	-20.79	-16.68	-9.98	-1.66	7.11	15.21	21.87	26.71	29.62	30.72	5.98
65535
10.81	9.10	6.59	3.75	1.01	-1.28	-2.95	-3.92	-4.22	-3.95	-3.31	-2.57	-2.00	-1.83	-2.18	-3.11	-21.24
65535
22.62	20.57	18.00	15.02	11.75	8.35	4.92	1.44	-2.24	-6.28	-10.64	-14.87	-18.14	-19.43	-17.88	-13.14	7.82
65535
-34.58	-25.03	-14.78	-5.06	3.14	9.24	13.02	14.57	14.18	12.28	9.40	6.07	2.80	0.01	-2.03	-3.22	-0.51
65535
4.67	4.74	4.95	4.98	4.67	4.01	3.19	2.34	1.54	0.72	-0.32	-1.76	-3.75	-6.40	-9.73	-13.79	-15.35
65535
-3.72	-9.04	-14.52	-19.54	-23.19	-24.59	-23.08	-18.46	-11.14	-2.07	7.57	16.63	24.29	30.17	34.21	36.54	6.01
65535
15.90	15.11	12.97	9.81	6.12	2.48	-0.64	-3.02	-4.66	-5.76	-6.52	-7.13	-7.67	-8.24	-8.93	-9.85	-20.39
65535
15.34	13.90	12.31	10.66	8.95	7.01	4.59	1.44	-2.46	-6.85	-11.09	-14.28	-15.42	-13.77	-9.00	-1.38	14.53
65535
-26.65	-16.13	-5.97	2.76	9.29	13.31	14.83	14.15	11.72	8.08	3.82	-0.49	-4.26	-7.07	-8.60	-8.87	2.98
65535
3.45	4.81	6.26	7.35	7.79	7.46	6.38	4.70	2.62	0.39	-1.87	-4.15	-6.56	-9.35	-12.71	-16.65	-2.28
65535
-15.70	-19.92	-23.35	-25.22	-24.82	-21.73	-15.99	-8.20	0.58	9.17	16.52	22.04	25.59	27.32	27.48	26.26	10.65
65535
10.91	7.55	3.67	-0.11	-3.16	-5.02	-5.52	-4.82	-3.36	-1.62	-0.05	1.02	1.41	1.08	-0.03	-1.88	-14.07
65535
20.26	17.06	13.40	9.49	5.48	1.43	-2.66	-6.71	-10.48	-13.45	-14.93	-14.23	-11.02	-5.44	1.86	9.92	9.34
65535
-5.66	1.12	6.33	9.64	10.96	10.30	7.93	4.35	0.24	-3.58	-6.46	-8.00	-8.22	-7.47	-6.28	-5.21	-10.95
65535
15.59	15.38	14.46	13.01	11.28	9.41	7.43	5.20	2.50	-0.87	-4.99	-9.71	-14.64	-19.06	-22.09	-22.88	3.37
65535
-35.16	-30.24	-22.95	-14.29	-5.44	2.57	9.02	13.59	16.20	16.92	15.92	13.50	10.15	6.47	3.13	0.64	-3.49
65535
6.08	5.66	5.89	6.35	6.63	6.47	5.75	4.52	2.93	1.12	-0.83	-3.00	-5.64	-9.10	-13.64	-19.20	-7.17
65535
-21.59	-27.22	-31.29	-32.73	-30.96	-25.93	-18.15	-8.55	1.80	11.82	20.60	27.49	32.11	34.47	34.78	33.43	10.20
65535
13.55	10.34	6.90	3.71	1.19	-0.39	-1.02	-0.99	-0.75	-0.77	-1.30	-2.38	-3.89	-5.74	-7.92	-10.51	-17.67
65535
14.26	10.60	6.37	1.60	-3.64	-9.12	-14.30	-18.31	-20.09	-18.75	-13.97	-6.16	3.55	13.76	23.20	31.03	20.21
65535
-1.01	2.87	4.97	5.49	4.62	2.66	0.06	-2.57	-4.58	-5.48	-5.09	-3.61	-1.60	0.29	1.45	1.49	-6.76
65535
27.31	25.17	22.38	19.29	16.12	12.91	9.48	5.59	1.03	-4.30	-10.28	-16.49	-22.31	-26.93	-29.53	-29.40	5.90
65535
-38.90	-32.89	-24.71	-15.45	-6.30	1.73	7.97	12.16	14.40	14.97	14.34	12.98	11.40	10.02	9.18	9.03	16.03
65535
-0.62	0.29	1.32	2.22	2.84	3.20	3.36	3.38	3.21	2.71	1.72	0.14	-2.00	-4.55	-7.29	-10.01	-14.37
65535
17.81	15.46	13.28	11.13	8.77	5.87	2.17	-2.37	-7.38	-12.11	-15.53	-16.65	-14.80	-9.88	-2.40	6.64	16.84
65533
-15.15	-6.49	0.54	5.43	8.03	8.48	7.12	4.52	1.35	-1.62	-3.71	-4.48	-3.86	-2.16	1.99	14.49
65535
5.69	6.23	6.08	5.52	4.88	4.32	3.82	3.23	2.32	0.93	-0.96	-3.27	-5.82	-8.44	-11.01	-13.52	-12.74
65535
11.19	8.58	5.81	2.78	-0.56	-4.21	-7.95	-11.28	-13.51	-13.87	-11.82	-7.30	-0.78	6.87	14.58	21.46	12.39
65535
1.73	5.34	7.10	7.12	5.69	3.26	0.40	-2.27	-4.24	-5.25	-5.30	-4.64	-3.62	-2.57	-1.69	-1.07	-0.61
65535
12.30	12.41	12.18	11.48	10.18	8.19	5.50	2.34	-1.02	-4.22	-7.01	-9.26	-11.02	-12.50	-13.94	-15.60	-9.93
65535
-8.33	-10.81	-13.55	-16.15	-17.98	-18.36	-16.69	-12.72	-6.69	0.66	8.34	15.31	20.77	24.33	25.97	25.95	5.06
65535
9.70	7.59	5.04	2.36	-0.13	-2.16	-3.53	-4.14	-4.03	-3.42	-2.57	-1.75	-1.11	-0.71	-0.55	-0.63	-10.75
65535
14.78	13.94	12.56	10.66	8.37	5.96	3.71	1.78	0.15	-1.47	-3.50	-6.31	-9.94	-13.95	-17.44	-19.27	1.23
65535
-30.51	-26.85	-20.69	-13.02	-5.10	1.93	7.40	11.06	13.02	13.53	12.92	11.46	9.42	7.16	5.01	3.26	1.29
65535
2.03	1.44	1.30	1.44	1.71	2.06	2.42	2.73	2.82	2.51	1.62	0.11	-1.92	-4.28	-6.77	-9.23	-16.81
65535
6.54	4.36	2.32	0.35	-1.69	-3.90	-6.28	-8.61	-10.39	-10.94	-9.63	-6.06	-0.32	7.01	14.94	22.33	10.35
65535
1.03	4.79	6.39	6.19	4.77	2.74	0.52	-1.55	-3.25	-4.38	-4.80	-4.49	-3.58	-2.40	-1.33	-0.67	-6.49
65535
16.24	15.71	14.62	12.98	10.79	8.04	4.89	1.57	-1.63	-4.51	-7.01	-9.30	-11.63	-14.16	-16.93	-19.65	-2.02
65535
-26.21	-26.95	-25.70	-22.13	-16.47	-9.41	-1.97	4.88	10.47	14.52	17.06	18.28	18.33	17.31	15.33	12.64	1.32
65535
6.27	3.34	0.92	-0.74	-1.53	-1.52	-0.93	-0.03	0.84	1.42	1.54	1.10	0.09	-1.47	-3.50	-5.80	-16.97
65535
10.10	7.81	5.70	3.65	1.41	-1.26	-4.41	-7.76	-10.68	-12.33	-11.94	-9.09	-3.86	3.13	10.93	18.53	7.55
65535
0.55	5.52	8.74	10.28	10.31	9.01	6.59	3.39	-0.20	-3.64	-6.45	-8.33	-9.21	-9.30	-8.93	-8.40	-8.68
65535
8.32	8.68	8.84	8.72	8.15	7.04	5.37	3.29	1.07	-1.09	-3.14	-5.23	-7.67	-10.68	-14.14	-17.57	-1.47
65535
-27.35	-28.12	-26.46	-22.21	-15.87	-8.35	-0.78	5.94	11.26	15.06	17.45	18.55	18.40	16.99	14.43	11.06	-0.58
65535
6.60	3.51	1.45	0.60	0.78	1.55	2.36	2.78	2.58	1.76	0.44	-1.19	-2.98	-4.84	-6.75	-8.72	-12.52
65535
1.13	-1.13	-3.62	-6.38	-9.36	-12.28	-14.63	-15.67	-14.68	-11.17	-5.23	2.57	11.22	19.64	26.94	32.58	11.43
65535
12.36	14.11	13.99	12.18	9.05	5.11	0.95	-2.84	-5.82	-7.77	-8.72	-8.88	-8.62	-8.31	-8.25	-8.62	-15.30
65535
17.32	16.19	14.80	13.16	11.21	8.84	5.97	2.64	-1.10	-5.13	-9.21	-12.97	-15.82	-17.09	-16.16	-12.72	5.88
65535
-28.15	-20.76	-12.68	-4.90	1.83	7.09	10.71	12.68	13.04	11.87	9.40	6.02	2.34	-0.96	-3.26	-4.29	-3.19
65535
4.95	5.85	6.81	7.27	6.92	5.81	4.28	2.69	1.26	-0.01	-1.34	-3.01	-5.29	-8.28	-11.92	-15.92	-1.15
65535
-21.78	-24.70	-25.96	-24.96	-21.50	-15.83	-8.66	-0.93	6.44	12.77	17.68	21.00	22.73	22.90	21.64	19.21	6.33
65535
8.57	5.25	2.36	0.36	-0.56	-0.52	0.14	0.95	1.48	1.45	0.80	-0.40	-2.01	-3.88	-5.92	-8.09	-8.47
65535
4.42	2.05	-0.44	-3.05	-5.84	-8.74	-11.48	-13.48	-14.01	-12.35	-8.17	-1.68	6.35	14.81	22.62	28.96	14.02
65535
10.92	13.40	14.03	13.02	10.60	7.08	2.91	-1.32	-5.03	-7.76	-9.31	-9.81	-9.68	-9.43	-9.50	-10.11	-9.39
65535
12.20	10.85	9.49	8.29	7.20	6.07	4.69	2.87	0.53	-2.31	-5.50	-8.69	-11.35	-12.77	-12.24	-9.30	12.49
65535
-25.85	-18.73	-10.82	-3.26	3.06	7.65	10.46	11.66	11.50	10.14	7.78	4.72	1.42	-1.54	-3.64	-4.63	5.07
65535
2.80	3.39	4.05	4.38	4.24	3.77	3.25	2.89	2.69	2.39	1.60	-0.07	-2.80	-6.51	-10.84	-15.29	2.11
65535
-16.32	-19.29	-20.74	-20.26	-17.68	-13.13	-7.11	-0.42	6.03	11.47	15.38	17.60	18.22	17.47	15.65	13.09	5.16
65535
7.15	4.35	2.04	0.50	-0.23	-0.25	0.13	0.59	0.82	0.70	0.21	-0.59	-1.61	-2.87	-4.46	-6.49	-3.83
65535
-0.08	-3.18	-6.66	-10.22	-13.40	-15.64	-16.32	-14.97	-11.40	-5.84	1.09	8.47	15.37	20.99	24.90	26.92	9.53
65535
13.79	12.45	9.87	6.44	2.64	-1.01	-3.99	-5.88	-6.55	-6.12	-5.00	-3.72	-2.79	-2.55	-3.12	-4.39	-10.84
65535
14.20	12.09	9.78	7.30	4.62	1.69	-1.50	-4.83	-8.01	-10.53	-11.83	-11.34	-8.76	-4.12	2.09	9.13	6.77
65535
-1.54	4.51	9.05	11.72	12.42	11.22	8.41	4.46	0.01	-4.22	-7.56	-9.63	-10.39	-10.18	-9.49	-8.76	-6.42
65535
4.96	5.26	5.45	5.61	5.71	5.63	5.23	4.40	3.08	1.22	-1.16	-3.99	-7.04	-9.87	-11.92	-12.57	2.51
65535
-20.33	-17.26	-12.58	-6.91	-1.02	4.33	8.56	11.29	12.39	11.90	10.01	7.03	3.39	-0.41	-3.85	-6.49	-5.21
65535
-0.34	-0.82	-0.42	0.47	1.43	2.16	2.53	2.58	2.47	2.25	1.89	1.18	-0.08	-2.09	-4.87	-8.29	-4.11
65535
-13.13	-16.70	-19.46	-20.73	-19.94	-16.84	-11.61	-4.92	2.28	9.01	14.55	18.47	20.63	21.08	19.94	17.41	-1.31
65535
11.03	6.89	2.80	-0.63	-2.90	-3.80	-3.41	-2.14	-0.56	0.73	1.29	0.96	-0.13	-1.68	-3.37	-5.02	-11.55
65535
3.61	1.84	-0.32	-2.99	-6.15	-9.49	-12.47	-14.34	-14.35	-12.00	-7.17	-0.32	7.65	15.66	22.71	28.17	9.30
65535
10.88	12.60	12.61	11.16	8.49	4.92	0.89	-3.04	-6.30	-8.46	-9.34	-9.05	-7.99	-6.68	-5.62	-5.14	-10.52
65535
14.44	13.60	12.33	10.82	9.20	7.46	5.49	3.16	0.34	-3.03	-6.78	-10.50	-13.59	-15.32	-15.09	-12.55	6.61
65535
-24.94	-18.49	-11.20	-4.01	2.27	7.05	10.08	11.35	11.04	9.45	6.99	4.11	1.35	-0.83	-2.06	-2.22	3.39
65535
1.76	3.11	4.58	5.78	6.44	6.44	5.83	4.71	3.21	1.42	-0.56	-2.73	-5.17	-8.00	-11.39	-15.37	-5.64
65535
-10.76	-15.14	-18.84	-21.09	-21.25	-19.03	-14.58	-8.41	-1.26	6.04	12.73	18.19	22.03	24.04	24.28	22.98	6.33
65535
8.58	5.53	2.41	-0.28	-2.16	-3.02	-2.88	-1.94	-0.63	0.59	1.31	1.29	0.49	-0.99	-2.99	-5.35	-14.65
65535
12.99	10.12	7.06	3.86	0.56	-2.79	-6.08	-9.05	-11.28	-12.22	-11.34	-8.37	-3.43	2.96	10.02	16.94	8.63
65535
-0.23	4.65	8.03	9.77	9.84	8.34	5.55	2.03	-1.57	-4.60	-6.61	-7.50	-7.53	-7.10	-6.66	-6.49	-6.30
65535
8.28	7.86	7.33	6.80	6.29	5.73	4.98	3.90	2.33	0.16	-2.62	-5.82	-9.00	-11.53	-12.70	-11.94	7.55
65535
-22.90	-18.12	-12.09	-5.62	0.48	5.65	9.50	11.87	12.73	12.10	10.09	6.93	3.02	-1.11	-4.87	-7.71	-4.32
65535
2.55	2.16	2.70	3.66	4.47	4.73	4.29	3.23	1.83	0.36	-1.03	-2.33	-3.70	-5.34	-7.46	-10.19	-2.42
65535
-15.30	-18.61	-21.33	-22.62	-21.77	-18.43	-12.82	-5.70	1.92	9.07	15.02	19.42	22.21	23.47	23.38	22.17	8.66
65535
9.05	6.57	4.06	1.92	0.44	-0.29	-0.33	0.03	0.44	0.55	0.11	-0.93	-2.48	-4.35	-6.35	-8.40	-13.05
65535
11.21	9.02	6.64	3.96	0.88	-2.65	-6.48	-10.19	-13.02	-14.12	-12.82	-8.86	-2.59	5.13	13.22	20.67	14.94
65535
-1.22	3.20	5.92	7.11	7.00	5.88	4.02	1.76	-0.59	-2.71	-4.35	-5.33	-5.63	-5.42	-4.98	-4.66	-2.66
65535
12.89	12.33	11.34	10.03	8.53	6.90	5.12	3.17	1.03	-1.30	-3.81	-6.59	-9.71	-13.17	-16.76	-19.95	6.13
65535
-30.76	-30.79	-28.27	-23.13	-15.94	-7.70	0.43	7.49	12.91	16.59	18.65	19.26	18.60	16.84	14.30	11.47	11.22
65535
3.84	2.09	1.35	1.51	2.17	2.81	3.04	2.69	1.81	0.65	-0.57	-1.71	-2.81	-4.01	-5.50	-7.35	-10.97
65535
12.71	10.53	8.56	7.01	5.89	5.06	4.21	3.00	1.19	-1.35	-4.48	-7.81	-10.69	-12.35	-12.08	-9.47	10.42
65535
-25.95	-19.31	-11.87	-4.71	1.31	5.72	8.48	9.78	9.92	9.16	7.69	5.70	3.48	1.42	-0.09	-0.77	10.13
65535
-0.30	0.53	1.60	2.53	3.06	3.10	2.75	2.22	1.65	1.05	0.36	-0.56	-1.83	-3.45	-5.34	-7.31	-11.46
65535
12.41	10.78	9.41	8.21	7.02	5.67	4.04	2.04	-0.36	-3.14	-6.14	-9.01	-11.15	-11.90	-10.66	-7.22	4.56
65535
-17.93	-11.59	-5.26	0.14	4.08	6.48	7.53	7.50	6.60	4.97	2.82	0.55	-1.32	-2.23	-1.90	-0.38	6.88
65535
-0.37	2.15	4.32	5.78	6.46	6.45	5.89	4.89	3.48	1.63	-0.62	-3.17	-5.81	-8.32	-10.51	-12.27	-13.39
65535
6.67	5.69	4.97	4.33	3.58	2.51	0.92	-1.24	-3.78	-6.25	-7.98	-8.31	-6.79	-3.36	1.60	7.46	6.30
65535
-6.26	-0.87	3.43	6.30	7.59	7.33	5.75	3.27	0.46	-2.11	-3.99	-4.95	-5.05	-4.50	-3.63	-2.73	-1.38
65535
5.68	6.09	6.17	5.95	5.45	4.72	3.76	2.56	1.11	-0.58	-2.42	-4.34	-6.20	-7.91	-9.41	-10.68	-11.45
65535
-1.73	-2.81	-4.07	-5.68	-7.65	-9.76	-11.45	-12.02	-10.85	-7.62	-2.55	3.73	10.33	16.36	21.21	24.59	7.50
65535
7.54	8.13	7.61	6.22	4.16	1.72	-0.76	-2.92	-4.45	-5.20	-5.19	-4.66	-3.89	-3.18	-2.69	-2.48	-5.40
65535
10.40	10.17	9.67	8.76	7.31	5.30	2.86	0.27	-2.15	-4.16	-5.68	-6.74	-7.54	-8.32	-9.34	-10.86	-6.11
65535
-12.32	-15.02	-17.85	-20.03	-20.67	-19.07	-15.01	-8.87	-1.54	5.89	12.52	17.78	21.50	23.74	24.65	24.35	9.34
65535
7.55	5.45	2.99	0.70	-0.94	-1.70	-1.60	-0.98	-0.25	0.18	0.13	-0.40	-1.23	-2.20	-3.26	-4.44	-11.30
65535
14.75	12.95	10.82	8.51	6.22	4.11	2.27	0.69	-0.71	-2.06	-3.56	-5.39	-7.75	-10.64	-13.74	-16.41	0.38
65535
-29.49	-28.84	-25.74	-20.31	-13.24	-5.51	1.84	8.08	12.78	15.85	17.33	17.39	16.18	14.00	11.23	8.39	5.18
65535
1.20	-0.35	-0.91	-0.59	0.27	1.27	2.07	2.51	2.59	2.36	1.84	1.00	-0.26	-2.02	-4.24	-6.76	-17.21
65535
13.03	10.62	8.54	6.85	5.46	4.20	2.85	1.20	-0.88	-3.39	-6.09	-8.56	-10.19	-10.36	-8.58	-4.66	5.31
65535
-21.32	-14.18	-6.66	0.24	5.69	9.20	10.69	10.37	8.67	6.12	3.23	0.45	-1.83	-3.33	-3.90	-3.52	2.67
65535
0.27	1.91	3.70	5.30	6.47	7.04	6.94	6.15	4.67	2.54	-0.16	-3.22	-6.37	-9.32	-11.89	-14.07	-15.18
65535
1.78	-0.38	-3.05	-6.33	-9.96	-13.33	-15.62	-16.03	-14.06	-9.69	-3.33	4.23	12.07	19.29	25.15	29.25	4.86
65535
11.38	11.73	10.58	8.31	5.40	2.23	-0.86	-3.60	-5.75	-7.11	-7.54	-7.10	-6.01	-4.69	-3.66	-3.36	-17.27
65535
18.14	16.63	14.51	12.13	9.78	7.56	5.38	3.07	0.48	-2.46	-5.73	-9.25	-12.88	-16.40	-19.45	-21.55	-9.29
65535
-30.16	-28.92	-25.76	-20.95	-15.03	-8.53	-1.91	4.57	10.64	15.80	19.33	20.55	19.26	16.18	13.00	11.89	12.16
65535
-6.65	1.12	12.98	26.52	38.31	44.86	43.78	34.63	19.06	0.41	-17.47	-31.44	-39.98	-43.33	-42.84	-39.98	-3.91
65535
-19.42	-13.28	-5.21	4.47	14.33	22.19	25.96	24.63	18.76	10.07	0.57	-8.12	-15.02	-19.46	-20.94	-19.53	-37.36
65535
16.93	18.68	15.48	4.57	-13.81	-35.68	-54.37	-63.27	-58.79	-41.86	-17.20	9.08	32.23	50.27	63.71	74.10	37.97
65535
7.13	13.39	16.81	16.80	13.74	8.99	4.31	1.01	-0.61	-1.31	-2.41	-4.97	-9.39	-15.20	-21.39	-26.89	22.80
65535
-15.79	-18.24	-19.18	-18.88	-17.46	-14.88	-10.99	-5.77	0.53	7.33	13.77	18.89	21.90	22.33	20.24	16.21	21.75
65535
12.26	7.33	3.30	0.56	-0.91	-1.43	-1.44	-1.27	-1.12	-1.04	-1.05	-1.21	-1.65	-2.53	-3.94	-5.93	-7.08
65535
20.38	17.42	14.20	10.89	7.65	4.61	1.75	-1.05	-3.96	-7.04	-10.08	-12.57	-13.81	-13.11	-10.14	-5.06	12.83
65535
-18.42	-11.30	-4.50	1.24	5.55	8.27	9.43	9.14	7.62	5.21	2.39	-0.33	-2.49	-3.78	-4.16	-3.80	0.84
65535
8.95	9.70	10.12	9.95	9.12	7.66	5.69	3.36	0.77	-1.94	-4.67	-7.30	-9.72	-11.88	-13.88	-15.88	-0.73
65535
-16.49	-18.86	-21.12	-22.65	-22.71	-20.68	-16.32	-9.89	-2.08	6.18	13.95	20.46	25.21	28.02	28.91	28.07	14.15
65535
10.93	7.66	3.92	0.27	-2.69	-4.53	-5.09	-4.48	-3.07	-1.38	0.11	1.04	1.20	0.48	-1.09	-3.36	-9.91
65535
17.98	15.15	12.54	10.38	8.65	7.08	5.29	2.88	-0.37	-4.34	-8.63	-12.49	-15.10	-15.70	-13.84	-9.54	8.88
65535
-22.04	-14.60	-7.01	-0.22	5.07	8.50	10.02	9.86	8.41	6.14	3.53	1.03	-1.00	-2.34	-2.85	-2.58	5.99
65535
1.22	2.49	3.84	4.94	5.57	5.57	4.89	3.65	2.05	0.31	-1.39	-3.04	-4.68	-6.44	-8.39	-10.60	-6.28
65535
-0.85	-3.73	-6.99	-10.47	-13.75	-16.13	-16.81	-15.16	-11.05	-4.90	2.39	9.74	16.20	21.18	24.42	25.95	9.41
65535
10.23	8.88	6.54	3.62	0.61	-2.00	-3.85	-4.78	-4.85	-4.28	-3.35	-2.31	-1.38	-0.79	-0.77	-1.49	-9.33
65535
15.77	13.66	11.19	8.65	6.26	4.13	2.23	0.53	-1.07	-2.70	-4.54	-6.72	-9.20	-11.61	-13.26	-13.37	4.16
65535
-24.85	-20.59	-14.55	-7.63	-0.83	4.95	9.20	11.66	12.39	11.60	9.64	6.91	3.93	1.20	-0.89	-2.09	1.54
65535
0.27	0.78	1.76	2.91	3.92	4.62	4.87	4.60	3.79	2.44	0.61	-1.59	-3.98	-6.32	-8.43	-10.23	-12.79
65535
2.49	0.84	-1.20	-3.83	-7.01	-10.30	-12.95	-14.10	-13.13	-9.81	-4.47	2.15	9.15	15.71	21.21	25.26	7.53
65535
7.42	8.33	7.84	6.25	3.91	1.26	-1.33	-3.52	-5.05	-5.76	-5.62	-4.76	-3.51	-2.29	-1.56	-1.61	-9.30
65535
14.34	12.84	11.02	9.16	7.40	5.68	3.90	1.97	-0.08	-2.17	-4.25	-6.45	-8.96	-11.86	-14.95	-17.62	-0.14
65535
-28.15	-27.36	-24.00	-18.21	-10.80	-2.87	4.46	10.34	14.34	16.38	16.63	15.39	13.03	10.03	6.84	3.95	1.54
65535
0.11	-1.09	-1.29	-0.68	0.42	1.65	2.69	3.37	3.61	3.36	2.60	1.28	-0.58	-2.84	-5.20	-7.38	-16.47
65535
8.81	7.32	5.92	4.25	2.03	-0.88	-4.31	-7.86	-10.85	-12.52	-12.12	-9.23	-3.91	3.26	11.26	18.91	10.12
65535
-1.31	3.24	5.93	6.99	6.75	5.53	3.55	1.09	-1.48	-3.70	-5.18	-5.71	-5.39	-4.50	-3.42	-2.40	0.57
65535
8.01	8.71	9.21	9.41	9.08	8.01	6.14	3.62	0.74	-2.13	-4.75	-7.00	-9.00	-10.97	-13.21	-15.89	-5.01
65535
-13.39	-16.53	-19.10	-20.35	-19.67	-16.82	-11.98	-5.77	1.03	7.62	13.35	17.80	20.69	21.92	21.52	19.71	3.91
65535
8.01	4.80	1.72	-0.78	-2.44	-3.20	-3.17	-2.56	-1.63	-0.67	0.11	0.56	0.61	0.27	-0.39	-1.31	-12.12
65535
13.61	12.35	10.99	9.55	8.02	6.30	4.25	1.71	-1.41	-4.97	-8.57	-11.55	-13.14	-12.67	-9.81	-4.72	6.96
65535
-17.10	-9.70	-2.64	3.25	7.45	9.77	10.32	9.36	7.26	4.42	1.32	-1.62	-4.01	-5.60	-6.28	-6.19	-4.44
65535
5.83	6.60	7.17	7.23	6.70	5.63	4.19	2.64	1.10	-0.39	-1.94	-3.71	-5.85	-8.48	-11.61	-15.11	-7.63
65535
-15.55	-18.89	-21.37	-22.38	-21.39	-18.14	-12.77	-5.86	1.74	9.10	15.35	19.96	22.69	23.58	22.92	21.08	2.73
65535
8.16	5.30	2.57	0.29	-1.28	-2.05	-2.07	-1.52	-0.71	0.02	0.38	0.20	-0.52	-1.64	-2.95	-4.26	-14.01
65535
11.23	9.99	8.62	6.95	4.84	2.18	-1.04	-4.66	-8.31	-11.30	-12.80	-12.06	-8.68	-2.83	4.78	13.03	11.23
65535
-4.44	1.98	6.55	9.12	9.80	8.83	6.53	3.35	-0.16	-3.41	-5.92	-7.35	-7.64	-6.99	-5.78	-4.48	-6.95
65535
14.63	14.87	14.28	12.89	10.88	8.48	5.86	3.12	0.26	-2.71	-5.81	-9.01	-12.28	-15.56	-18.65	-21.18	2.51
65535
-32.04	-31.66	-29.02	-24.01	-17.07	-9.02	-0.82	6.63	12.73	17.17	19.84	20.79	20.16	18.25	15.53	12.57	7.87
65535
4.58	2.70	1.72	1.53	1.90	2.50	3.05	3.33	3.16	2.42	1.07	-0.81	-3.08	-5.54	-8.02	-10.47	-10.04
65535
4.96	2.31	-0.71	-4.13	-7.78	-11.16	-13.59	-14.35	-12.93	-9.31	-3.88	2.58	9.17	15.13	20.02	23.64	6.67
65535
9.25	10.25	9.90	8.20	5.30	1.64	-2.20	-5.51	-7.76	-8.63	-8.17	-6.65	-4.51	-2.23	-0.20	1.31	-2.27
65535
11.09	11.25	10.82	9.91	8.62	7.00	5.08	2.81	0.12	-2.98	-6.37	-9.69	-12.33	-13.54	-12.61	-9.15	18.36
65535
-23.94	-16.40	-8.24	-0.59	5.66	10.03	12.42	13.04	12.13	9.96	6.79	2.97	-1.09	-4.87	-7.94	-10.01	2.40
65535
4.91	4.66	4.82	5.01	4.97	4.61	3.95	3.08	2.03	0.77	-0.76	-2.59	-4.74	-7.23	-10.09	-13.39	-4.46
65535
-10.29	-14.31	-18.08	-20.85	-21.79	-20.25	-16.11	-9.78	-2.15	5.70	12.77	18.41	22.33	24.55	25.25	24.64	6.98
65535
11.48	8.97	6.03	3.15	0.76	-0.82	-1.57	-1.66	-1.46	-1.33	-1.53	-2.15	-3.14	-4.34	-5.57	-6.76	-11.59
65535
10.66	9.45	8.00	6.16	3.81	0.95	-2.29	-5.62	-8.63	-10.76	-11.40	-10.07	-6.61	-1.24	5.37	12.29	6.46
65535
0.54	5.49	8.68	10.04	9.70	7.95	5.14	1.70	-1.84	-4.95	-7.17	-8.26	-8.25	-7.44	-6.25	-5.11	-10.39
65535
12.51	12.75	12.38	11.48	10.13	8.44	6.46	4.20	1.57	-1.51	-5.09	-9.01	-12.88	-16.08	-17.86	-17.49	9.29
65535
-34.28	-28.90	-21.61	-13.33	-5.11	2.17	7.96	12.04	14.45	15.31	14.77	13.02	10.36	7.22	4.19	1.74	2.47
65535
6.95	6.20	6.02	6.05	5.94	5.46	4.54	3.21	1.60	-0.16	-2.00	-3.91	-5.98	-8.35	-11.15	-14.42	-3.81
65535
-11.75	-15.35	-18.40	-20.28	-20.46	-18.61	-14.69	-9.02	-2.23	4.92	11.65	17.35	21.65	24.39	25.56	25.26	8.28
65535
11.57	8.94	5.71	2.45	-0.28	-2.02	-2.63	-2.28	-1.45	-0.70	-0.48	-0.99	-2.17	-3.72	-5.29	-6.61	-7.24
65535
7.90	7.01	5.93	4.39	2.23	-0.51	-3.57	-6.58	-9.02	-10.37	-10.15	-8.03	-3.99	1.66	8.25	14.92	11.65
65535
1.91	6.33	8.93	9.69	8.85	6.77	3.88	0.64	-2.51	-5.18	-7.03	-7.88	-7.76	-6.86	-5.53	-4.18	-3.64
65535
12.10	12.46	12.04	10.88	9.13	7.07	4.93	2.84	0.79	-1.36	-3.79	-6.65	-9.94	-13.51	-17.04	-19.96	1.28
65535
-26.50	-26.19	-23.50	-18.46	-11.64	-4.04	3.21	9.15	13.26	15.49	16.07	15.35	13.63	11.13	8.11	4.92	2.09
65535
1.22	-0.93	-2.04	-2.07	-1.24	0.04	1.32	2.27	2.70	2.62	2.11	1.31	0.29	-0.93	-2.43	-4.25	-8.85
65535
4.62	2.39	0.13	-2.11	-4.40	-6.79	-9.13	-10.98	-11.65	-10.45	-7.05	-1.65	5.00	11.84	17.86	22.37	6.07
65535
10.18	11.15	10.59	8.79	6.10	2.95	-0.19	-2.84	-4.71	-5.69	-5.97	-5.86	-5.70	-5.77	-6.17	-6.85	-11.26
65535
9.66	8.85	8.12	7.44	6.74	5.86	4.75	3.34	1.56	-0.62	-3.25	-6.26	-9.32	-11.82	-12.98	-12.11	5.09
65535
-25.24	-19.94	-13.33	-6.44	-0.23	4.65	8.00	9.90	10.58	10.24	9.05	7.16	4.81	2.32	0.09	-1.56	0.61
65535
2.11	2.16	2.88	3.86	4.64	4.79	4.15	2.83	1.19	-0.42	-1.72	-2.73	-3.67	-4.83	-6.47	-8.72	-7.45
65535
-3.50	-6.82	-10.36	-13.69	-16.20	-17.19	-16.06	-12.62	-7.14	-0.43	6.49	12.69	17.59	20.97	22.89	23.41	4.89
65535
10.27	8.21	5.18	1.70	-1.50	-3.76	-4.72	-4.48	-3.47	-2.25	-1.25	-0.64	-0.44	-0.54	-0.88	-1.43	-8.94
65535
11.62	10.61	9.35	7.76	5.82	3.55	1.05	-1.49	-3.91	-6.06	-7.82	-8.96	-9.14	-7.86	-4.75	0.24	7.06
65535
-9.37	-2.51	3.68	8.25	10.71	11.11	9.86	7.48	4.39	0.94	-2.57	-5.77	-8.23	-9.59	-9.70	-8.73	0.60
65535
-0.60	1.29	3.01	4.34	5.21	5.58	5.44	4.76	3.56	1.92	0.01	-2.04	-4.20	-6.57	-9.28	-12.39	-5.14
65535
-10.06	-13.35	-15.97	-17.27	-16.79	-14.36	-10.18	-4.77	1.18	6.93	11.86	15.52	17.63	18.09	17.00	14.61	-1.74
65535
7.91	4.20	0.65	-2.25	-4.13	-4.84	-4.43	-3.14	-1.39	0.35	1.66	2.28	2.14	1.40	0.34	-0.79	-11.15
65535
7.56	6.52	5.35	3.86	1.97	-0.30	-2.83	-5.35	-7.56	-9.00	-9.21	-7.74	-4.41	0.65	6.92	13.59	9.42
65535
-0.72	4.39	7.96	9.81	10.01	8.73	6.26	3.01	-0.48	-3.66	-6.10	-7.60	-8.20	-8.16	-7.81	-7.46	-7.44
65535
9.54	9.37	8.87	8.07	7.04	5.85	4.55	3.14	1.57	-0.26	-2.48	-5.12	-8.16	-11.36	-14.27	-16.31	1.42
65535
-25.69	-24.21	-20.60	-15.15	-8.56	-1.73	4.46	9.40	12.76	14.46	14.61	13.40	11.11	8.15	5.08	2.49	3.01
65535
-0.76	-1.29	-0.82	0.31	1.63	2.78	3.51	3.72	3.43	2.68	1.56	0.15	-1.45	-3.17	-5.06	-7.21	-6.35
65535
-0.44	-3.52	-7.01	-10.56	-13.59	-15.45	-15.53	-13.54	-9.52	-3.94	2.48	8.96	14.80	19.52	22.80	24.54	6.54
65535
11.81	10.50	7.98	4.68	1.20	-1.87	-4.09	-5.25	-5.40	-4.81	-3.81	-2.78	-2.00	-1.68	-1.91	-2.64	-8.83
65535
11.65	10.42	9.20	8.04	6.81	5.27	3.16	0.37	-2.99	-6.50	-9.51	-11.32	-11.30	-9.15	-4.98	0.76	8.41
65535
-9.92	-3.38	2.40	6.88	9.73	10.83	10.25	8.22	5.10	1.37	-2.40	-5.66	-7.94	-8.99	-8.81	-7.69	-1.57
65535
3.86	5.34	6.32	6.59	6.21	5.39	4.35	3.21	1.96	0.49	-1.28	-3.39	-5.78	-8.39	-11.11	-13.76	1.83
65535
-19.38	-20.66	-20.44	-18.31	-14.26	-8.72	-2.47	3.60	8.76	12.59	14.96	15.91	15.50	13.86	11.19	7.86	3.05
65535
3.21	0.32	-1.55	-2.19	-1.74	-0.64	0.63	1.62	2.12	2.09	1.64	0.90	-0.02	-1.03	-2.10	-3.22	-5.96
65535
4.62	3.31	1.76	-0.17	-2.52	-5.17	-7.78	-9.79	-10.58	-9.67	-6.85	-2.37	3.18	9.01	14.36	18.67	7.05
65535
8.62	10.11	10.16	8.92	6.61	3.59	0.28	-2.79	-5.21	-6.68	-7.14	-6.77	-5.92	-5.03	-4.44	-4.39	-11.09
65535
13.26	12.33	11.10	9.68	8.09	6.29	4.24	1.93	-0.65	-3.45	-6.39	-9.24	-11.60	-12.90	-12.56	-10.19	6.24
65535
-23.11	-17.09	-10.22	-3.44	2.50	7.07	10.08	11.52	11.53	10.25	7.90	4.77	1.28	-2.07	-4.73	-6.30	0.15
65535
-0.55	0.17	1.49	2.88	3.87	4.25	4.08	3.54	2.82	2.00	0.99	-0.35	-2.18	-4.57	-7.51	-10.92	-4.54
65535
-9.94	-13.65	-16.86	-18.90	-19.12	-17.11	-12.87	-6.93	-0.16	6.45	12.09	16.33	19.07	20.49	20.82	20.25	6.43
65535
7.94	5.98	3.65	1.31	-0.61	-1.81	-2.17	-1.80	-1.04	-0.30	0.07	-0.12	-0.85	-2.00	-3.38	-4.84	-9.46
65535
9.53	7.91	6.11	4.11	1.89	-0.53	-3.10	-5.67	-7.96	-9.49	-9.69	-8.12	-4.65	0.43	6.49	12.73	9.94
65535
-0.96	3.72	7.10	9.00	9.37	8.21	5.75	2.42	-1.16	-4.33	-6.56	-7.64	-7.63	-6.86	-5.74	-4.68	-2.71
65535
8.65	8.80	8.44	7.66	6.59	5.34	3.98	2.50	0.92	-0.79	-2.66	-4.77	-7.17	-9.84	-12.59	-14.98	3.58
65535
-22.77	-22.82	-21.07	-17.52	-12.50	-6.62	-0.58	4.97	9.55	12.85	14.73	15.26	14.58	12.95	10.71	8.23	6.44
65535
3.02	1.14	-0.01	-0.37	-0.02	0.77	1.68	2.35	2.59	2.31	1.55	0.40	-1.05	-2.76	-4.71	-6.86	-8.49
65535
5.83	3.60	1.47	-0.57	-2.61	-4.75	-6.97	-8.97	-10.18	-9.97	-7.83	-3.70	1.98	8.37	14.55	19.81	9.94
65535
5.31	7.85	9.05	8.99	7.76	5.46	2.41	-0.92	-3.98	-6.27	-7.52	-7.70	-7.02	-5.81	-4.44	-3.19	-0.67
65535
8.33	8.78	8.72	8.14	7.08	5.62	3.92	2.13	0.40	-1.25	-2.89	-4.72	-6.92	-9.57	-12.50	-15.27	-0.47
65535
-17.48	-18.12	-16.99	-14.01	-9.55	-4.25	1.09	5.76	9.26	11.39	12.15	11.73	10.39	8.43	6.19	4.00	0.51
65535
1.22	0.04	-0.41	-0.19	0.51	1.39	2.11	2.45	2.27	1.60	0.60	-0.54	-1.61	-2.50	-3.19	-3.77	-7.53
65535
3.60	2.69	1.37	-0.41	-2.61	-5.10	-7.55	-9.49	-10.39	-9.73	-7.21	-2.92	2.72	9.02	15.24	20.79	17.06
65535
0.67	3.86	5.67	6.09	5.20	3.28	0.79	-1.68	-3.54	-4.44	-4.32	-3.47	-2.38	-1.60	-1.59	-2.56	-14.35
65535
26.93	24.34	21.47	18.67	16.05	13.49	10.62	7.06	2.54	-2.92	-9.05	-15.41	-21.51	-26.92	-31.24	-34.13	-15.34
65535
-34.20	-33.12	-29.71	-24.11	-16.76	-8.47	-0.22	7.06	12.69	16.43	18.43	19.15	19.07	18.59	17.96	17.28	5.20
65535
-3.88	-4.30	-4.31	-3.75	-2.58	-0.99	0.70	2.12	3.02	3.34	3.18	2.73	2.17	1.58	0.93	0.09	-1.26
65535
5.42	3.92	2.02	-0.24	-2.80	-5.53	-8.11	-10.07	-10.82	-9.86	-7.00	-2.45	3.17	9.07	14.47	18.80	12.30
65535
8.24	9.83	10.13	9.32	7.62	5.28	2.60	-0.16	-2.75	-4.97	-6.66	-7.73	-8.14	-7.99	-7.53	-7.06	-5.33
65535
10.75	10.39	9.47	8.07	6.37	4.55	2.77	1.08	-0.51	-2.04	-3.63	-5.39	-7.40	-9.61	-11.70	-13.13	5.51
65535
-24.08	-22.36	-18.64	-13.20	-6.77	-0.26	5.44	9.69	12.19	13.00	12.39	10.80	8.66	6.36	4.23	2.51	9.52
65535
-2.65	-3.16	-2.98	-2.21	-1.00	0.36	1.55	2.34	2.62	2.45	2.00	1.44	0.83	0.19	-0.53	-1.32	9.13
65535
-1.75	-2.57	-3.41	-4.45	-5.82	-7.53	-9.31	-10.56	-10.62	-8.87	-5.06	0.59	7.46	14.63	21.14	26.13	26.42
65535
11.73	12.35	10.92	8.01	4.35	0.70	-2.37	-4.57	-5.85	-6.32	-6.18	-5.65	-4.95	-4.29	-3.91	-3.94	2.28
65535
19.74	18.98	18.08	17.12	16.00	14.33	11.70	7.78	2.58	-3.54	-9.94	-15.87	-20.71	-24.10	-25.90	-26.20	-24.79
65535
1.93	4.16	7.40	11.34	15.52	19.23	21.71	22.26	20.58	16.65	10.52	1.93	-9.88	-25.85	-46.44	-71.01	-72.21
65535
-50.10	-75.51	-96.53	-110.41	-115.19	-109.74	-93.49	-66.62	-30.51	11.72	55.26	94.58	125.16	145.08	155.67	160.68	70.57
65535
21.52	26.39	32.52	37.70	39.10	35.01	25.78	13.52	0.91	-10.14	-19.12	-26.65	-33.71	-40.86	-47.87	-54.11	-7.75
65535
19.27	15.65	12.78	9.89	6.37	2.19	-2.22	-6.03	-8.55	-9.44	-8.90	-7.56	-6.20	-5.44	-5.52	-6.34	-7.36
65535
-7.95	-9.18	-10.11	-10.57	-10.40	-9.51	-7.89	-5.61	-2.84	0.27	3.65	7.30	11.16	14.87	17.77	18.98	-12.05
65535
22.50	18.79	13.10	6.49	0.18	-4.95	-8.49	-10.50	-11.20	-10.81	-9.40	-7.06	-4.05	-0.81	2.10	4.19	-6.97
65535
0.14	0.15	-0.58	-1.69	-2.86	-3.86	-4.57	-4.89	-4.68	-3.83	-2.24	0.03	2.81	5.82	8.78	11.53	12.63
65535
-5.62	-3.42	-1.47	0.18	1.40	2.10	2.29	2.11	1.79	1.50	1.26	1.00	0.56	-0.16	-1.17	-2.36	3.47
65535
5.63	4.72	4.28	4.44	5.10	5.90	6.26	5.63	3.70	0.66	-2.92	-6.25	-8.66	-9.81	-9.79	-8.91	4.61
65535
-8.68	-7.05	-5.26	-3.34	-1.37	0.52	2.09	3.10	3.43	3.08	2.29	1.47	1.09	1.46	2.67	4.53	16.13
65535
-4.81	-2.58	-0.44	1.59	3.48	5.05	5.99	6.02	5.06	3.29	1.13	-1.07	-3.08	-4.91	-6.60	-8.07	-1.97
65535
8.97	8.55	8.71	9.09	9.04	7.99	5.74	2.56	-0.93	-4.03	-6.34	-7.85	-8.88	-9.82	-10.85	-11.88	-7.52
65535
