-0.00	64.00	0.00	0.00	0.00	0.00	0.00	0.00	0.00	0.00	0.00	0.00	0.00	0.01	0.01	0.00	-0.03	1.81	-1.86	-1.86	-1.81	-1.68	-1.45	-1.15	-0.80	-0.44	-0.09	0.25	0.59	0.98	1.43	1.99	2.61	3.25	10.74	-5.08	-4.54	-4.06	-3.59	-3.06	-2.43	-1.60	-0.65	0.30	1.14	1.82	2.40	3.02	3.91	5.22	7.17	45.14	-24.82	-22.24	-19.76	-17.56	-15.57	-13.46	-10.82	-7.33	-2.60	3.01	8.96	14.69	19.83	24.44	29.00	34.20	151.71	-66.00	-57.95	-48.71	-39.09	-29.98	-21.94	-14.96	-8.41	-0.96	6.06	14.93	26.24	40.08	55.26	68.86	76.54	-120.02	345.38	328.55	296.89	252.78	200.07	143.09	85.08	27.58	-29.14	-85.21	-140.35	-193.72	-243.85	-289.81	-330.89	-366.48	-351.69	-164.05	-185.54	-197.53	-198.27	-186.68	-162.52	-126.98	-82.19	-30.76	24.67	81.85	139.06	195.03	248.74	299.32	345.79	148.22	-112.64	-76.79	-46.87	-22.72	-3.84	10.47	20.93	28.15	32.53	34.35	33.85	31.29	27.01	21.43	14.96	7.93	94.46	54.35	46.84	39.23	31.56	23.87	16.23	8.70	1.34	-5.78	-12.63	-19.21	-25.51	-31.51	-37.21	-42.60	-47.68	18.59	23.44	19.00	14.86	11.02	7.48	4.22	1.24	-1.48	-3.92	-6.11	-8.05	-9.76	-11.24	-12.52	-13.62	-14.54	0.97	2.30	1.65	1.12	0.68	0.33	0.04	-0.18	-0.36	-0.50	-0.60	-0.67	-0.71	-0.73	-0.75	-0.77	-0.82	-0.00	0.08	0.01	-0.05	-0.08	-0.07	-0.03	0.03	0.06	0.05	0.01	-0.05	-0.09	-0.09	-0.03	0.06	0.15	-0.08	0.27	0.23	0.11	-0.04	-0.15	-0.15	-0.01	0.23	0.47	0.56	0.44	0.11	-0.30	-0.63	-0.68	-0.39	-0.22	0.28	0.81	1.07	0.88	0.25	-0.57	-1.23	-1.39	-0.93	-0.02	0.93	1.45	1.22	0.29	-0.98	-2.01	-3.41	0.84	1.37	2.58	4.01	5.11	5.43	4.64	2.46	-1.14	-5.69	-9.95	-12.19	-10.77	-5.03	4.08	14.28	7.47	11.89	16.58	16.93	13.97	9.53	5.16	1.57	-1.38	-4.14	-6.89	-9.31	-10.90	-11.38	-11.01	-10.40	-10.16	-4.14	0.97	-0.07	-1.20	-1.92	-1.95	-1.37	-0.48	0.32	0.76	0.74	0.46	0.16	0.09	0.40	1.08	1.98	4.47	-5.83	-5.43	-5.66	-6.47	-7.56	-8.37	-8.34	-7.04	-4.37	-0.64	3.56	7.54	10.68	12.57	13.08	12.35	7.44	7.74	5.57	3.22	0.99	-0.90	-2.31	-3.17	-3.49	-3.29	-2.70	-1.88	-1.03	-0.32	0.16	0.52	0.87	4.09	4.68	5.26	5.89	6.34	6.35	5.74	4.45	2.67	0.76	-0.96	-2.36	-3.60	-5.07	-7.15	-9.90	-13.07	-19.48	7.45	5.02	3.48	2.71	2.37	2.08	1.67	1.13	0.51	-0.23	-1.27	-2.74	-4.49	-6.01	-6.49	-5.17	7.91	-29.11	-23.75	-17.17	-10.33	-4.02	1.30	5.51	8.68	10.86	12.03	12.12	11.15	9.30	6.91	4.41	2.17	7.84	0.58	-0.35	-0.54	-0.17	0.48	1.05	1.29	1.12	0.69	0.28	0.08	0.13	0.16	-0.21	-1.33	-3.28	-11.77	13.80	11.17	8.88	7.16	5.91	4.79	3.49	1.83	-0.10	-2.15	-4.14	-6.09	-8.09	-10.22	-12.31	-13.93	1.86	-28.06	-26.86	-23.68	-18.72	-12.52	-5.86	0.57	6.22	10.79	14.11	16.11	16.75	16.11	14.36	11.80	8.85	5.57	2.26	-0.14	-1.73	-2.40	-2.23	-1.52	-0.64	0.10	0.57	0.83	1.04	1.26	1.42	1.28	0.61	-0.68	-11.70	14.81	12.79	10.78	8.91	7.15	5.42	3.60	1.71	-0.20	-2.08	-4.00	-6.13	-8.65	-11.61	-14.78	-17.72	-4.09	-27.37	-27.91	-26.53	-23.14	-17.98	-11.57	-4.62	2.15	8.16	13.00	16.54	18.83	20.05	20.43	20.22	19.68	10.14	4.81	4.24	3.77	3.27	2.57	1.52	0.19	-1.15	-2.15	-2.56	-2.39	-1.93	-1.61	-1.80	-2.66	-4.08	-12.78	17.06	15.10	12.98	10.63	8.00	5.18	2.44	0.03	-1.86	-3.33	-4.71	-6.44	-8.84	-11.96	-15.48	-18.80	-3.54	-30.43	-31.23	-29.98	-26.51	-21.00	-13.93	-6.02	1.91	9.14	15.10	19.49	22.24	23.50	23.56	22.77	21.46	10.77	5.60	4.00	2.45	1.00	-0.28	-1.32	-2.04	-2.36	-2.29	-1.89	-1.28	-0.62	-0.10	0.12	-0.11	-0.93	-10.76	19.16	17.11	14.59	11.82	8.97	6.23	3.67	1.26	-1.04	-3.29	-5.61	-8.12	-10.98	-14.28	-17.91	-21.52	-3.55	-31.66	-33.10	-32.38	-29.15	-23.59	-16.29	-8.09	0.18	7.89	14.64	20.17	24.30	26.88	27.80	27.14	25.23	9.04	9.97	7.14	4.64	2.75	1.47	0.63	-0.01	-0.65	-1.37	-2.12	-2.81	-3.33	-3.65	-3.85	-4.12	-4.71	-16.26	19.45	17.65	15.19	12.29	9.23	6.30	3.65	1.27	-1.04	-3.53	-6.42	-9.69	-13.06	-15.99	-17.74	-17.58	6.72	-38.01	-32.93	-25.71	-17.15	-8.33	-0.25	6.35	11.21	14.42	16.22	16.80	16.23	14.56	11.95	8.83	5.74	5.45	4.47	2.74	1.77	1.29	1.09	1.04	1.18	1.51	1.88	2.03	1.63	0.48	-1.40	-3.83	-6.56	-9.35	-20.12	13.44	10.68	7.82	4.70	1.16	-2.89	-7.28	-11.51	-14.76	-16.07	-14.68	-10.32	-3.36	5.29	14.51	23.29	18.29	-7.45	-1.20	3.57	6.90	8.82	9.36	8.59	6.69	3.98	0.88	-2.22	-4.93	-7.01	-8.32	-8.88	-8.80	-2.24	12.20	12.77	13.12	12.99	12.16	10.52	8.09	5.03	1.60	-1.95	-5.42	-8.78	-12.15	-15.76	-19.86	-24.56	-11.28	-20.63	-25.64	-29.73	-31.95	-31.50	-27.98	-21.56	-12.91	-3.02	7.10	16.65	25.13	32.25	37.85	41.83	44.09	16.35	16.99	15.92	13.56	10.26	6.54	2.82	-0.50	-3.17	-5.11	-6.34	-7.04	-7.42	-7.74	-8.30	-9.36	-11.13	-30.05	32.70	29.42	25.64	21.68	17.79	14.11	10.56	6.84	2.55	-2.77	-9.32	-16.88	-24.77	-31.86	-36.88	-38.79	-31.73	-35.49	-30.64	-23.52	-15.42	-7.55	-0.81	4.38	7.98	10.15	11.16	11.33	11.09	11.07	12.02	14.68	19.56	52.12	-57.11	-48.04	-37.79	-27.08	-16.50	-6.40	3.03	11.49	18.66	24.06	27.31	28.18	26.70	23.18	18.13	12.16	14.57	43.38	37.10	31.05	25.21	19.34	13.14	6.42	-0.88	-8.56	-16.11	-22.75	-27.55	-29.64	-28.49	-24.20	-17.42	27.96	-22.67	-14.38	-6.88	-0.69	4.08	7.52	9.72	10.68	10.37	8.79	6.21	3.04	-0.21	-3.09	-5.41	-7.15	10.98	8.46	7.26	6.09	4.92	3.83	2.93	2.26	1.72	1.13	0.27	-1.01	-2.80	-5.01	-7.49	-10.05	-12.51	-19.88	16.07	13.99	12.04	10.06	7.79	4.98	1.46	-2.72	-7.20	-11.32	-14.21	-15.03	-13.18	-8.52	-1.45	7.18	16.98	-20.57	-12.02	-4.82	0.65	4.33	6.44	7.28	7.13	6.22	4.75	2.99	1.26	-0.12	-0.97	-1.29	-1.27	11.19	4.63	4.69	4.65	4.58	4.57	4.55	4.39	3.91	2.95	1.49	-0.42	-2.69	-5.22	-7.92	-10.72	-13.49	-23.07	18.10	15.58	13.14	10.66	7.98	4.95	1.48	-2.39	-6.45	-10.29	-13.27	-14.64	-13.74	-10.25	-4.30	3.48	14.79	-25.70	-17.06	-9.25	-2.71	2.34	5.90	8.04	8.89	8.65	7.62	6.11	4.41	2.74	1.23	-0.07	-1.10	11.61	1.39	1.11	1.27	1.79	2.54	3.33	3.91	4.09	3.70	2.68	1.05	-1.01	-3.28	-5.52	-7.57	-9.43	-19.56	19.96	18.02	15.75	13.07	10.08	6.97	3.99	1.28	-1.16	-3.55	-6.15	-9.22	-12.74	-16.34	-19.29	-20.72	1.12	-40.53	-37.01	-30.95	-22.99	-14.04	-5.07	3.06	9.77	14.71	17.83	19.29	19.41	18.62	17.36	15.96	14.66	12.59	2.03	1.02	0.14	-0.59	-1.06	-1.19	-0.94	-0.34	0.46	1.24	1.74	1.75	1.15	-0.05	-1.70	-3.60	-9.42	16.41	14.38	12.30	10.09	7.69	5.18	2.70	0.43	-1.53	-3.25	-4.91	-6.73	-8.89	-11.48	-14.51	-17.84	-7.03	-23.57	-26.42	-28.09	-27.89	-25.30	-20.21	-13.04	-4.62	4.02	11.94	18.51	23.42	26.66	28.33	28.59	27.65	9.62	9.16	6.79	4.32	2.12	0.41	-0.80	-1.60	-2.14	-2.49	-2.63	-2.54	-2.27	-1.97	-1.85	-2.03	-2.54	-8.80	15.11	14.13	12.88	11.22	9.02	6.33	3.45	0.74	-1.50	-3.30	-4.90	-6.73	-9.14	-12.22	-15.76	-19.30	-5.12	-25.90	-27.56	-27.43	-25.16	-20.77	-14.63	-7.39	0.12	7.13	13.03	17.54	20.60	22.34	23.01	22.88	22.21	8.19	7.92	6.79	5.59	4.34	3.02	1.60	0.16	-1.23	-2.42	-3.29	-3.79	-3.92	-3.79	-3.59	-3.54	-3.84	-12.19	15.76	14.45	12.67	10.59	8.41	6.29	4.34	2.50	0.63	-1.53	-4.18	-7.42	-11.10	-14.76	-17.67	-19.00	3.55	-33.80	-30.32	-24.58	-17.34	-9.62	-2.39	3.71	8.47	11.98	14.45	15.94	16.38	15.61	13.59	10.62	7.26	5.22	2.54	0.33	-0.83	-1.12	-0.92	-0.60	-0.32	-0.05	0.33	0.82	1.29	1.48	1.15	0.20	-1.26	-3.03	-15.18	15.50	13.66	11.88	10.14	8.40	6.63	4.83	3.00	1.05	-1.17	-3.87	-7.16	-10.95	-14.77	-17.85	-19.30	1.90	-35.52	-32.16	-26.64	-19.70	-12.18	-4.79	1.98	7.80	12.45	15.70	17.46	17.81	17.01	15.49	13.60	11.66	6.36	5.38	3.85	2.71	2.02	1.75	1.72	1.68	1.41	0.83	0.02	-0.89	-1.80	-2.74	-3.86	-5.23	-6.81	-16.46	14.37	12.87	11.57	10.35	8.95	7.14	4.85	2.20	-0.59	-3.37	-6.13	-8.88	-11.51	-13.64	-14.59	-13.66	7.79	-34.65	-29.12	-21.89	-13.87	-6.01	0.97	6.67	10.96	13.84	15.31	15.40	14.13	11.70	8.57	5.34	2.64	5.61	3.05	2.30	2.29	2.61	2.86	2.85	2.63	2.29	1.89	1.34	0.44	-0.95	-2.80	-4.92	-7.03	-8.92	-22.21	17.25	15.71	14.09	12.24	10.14	7.86	5.47	2.93	0.04	-3.40	-7.42	-11.66	-15.35	-17.42	-16.96	-13.51	7.38	-36.87	-28.70	-19.70	-10.96	-3.22	3.11	7.94	11.28	13.18	13.71	13.03	11.45	9.35	7.18	5.32	3.97	10.41	0.09	-0.36	-0.58	-0.65	-0.48	-0.01	0.79	1.77	2.61	2.99	2.72	1.78	0.29	-1.54	-3.61	-5.88	-20.17	22.20	19.50	16.66	13.79	10.98	8.24	5.49	2.55	-0.69	-4.31	-8.27	-12.37	-16.15	-18.95	-20.00	-18.66	8.34	-43.07	-36.41	-27.87	-18.47	-9.27	-1.10	5.56	10.59	14.13	16.39	17.51	17.60	16.72	15.01	12.69	10.05	10.67	5.08	2.71	0.82	-0.47	-1.11	-1.14	-0.68	0.06	0.85	1.45	1.64	1.31	0.35	-1.25	-3.45	-6.12	-16.49	18.10	15.10	12.26	9.65	7.27	5.03	2.90	0.85	-1.07	-2.89	-4.74	-6.86	-9.43	-12.44	-15.57	-18.21	1.03	-37.13	-36.62	-33.78	-28.60	-21.44	-12.97	-4.04	4.49	11.91	17.71	21.73	24.04	24.90	24.61	23.45	21.69	13.69	6.93	4.75	2.80	1.31	0.39	0.00	-0.07	-0.06	-0.17	-0.46	-0.88	-1.36	-1.90	-2.60	-3.60	-5.03	-14.41	21.20	18.92	16.36	13.59	10.60	7.41	4.05	0.72	-2.39	-5.12	-7.51	-9.81	-12.37	-15.37	-18.65	-21.62	0.74	-38.55	-38.26	-35.33	-29.71	-21.86	-12.66	-3.11	5.87	13.58	19.56	23.57	25.58	25.75	24.41	22.03	19.10	6.58	10.17	7.15	4.39	1.97	0.02	-1.38	-2.17	-2.43	-2.34	-2.08	-1.83	-1.71	-1.76	-2.04	-2.58	-3.39	-14.26	16.39	15.13	13.72	12.17	10.45	8.49	6.21	3.54	0.43	-3.17	-7.18	-11.32	-15.00	-17.36	-17.55	-14.98	11.62	-35.47	-27.81	-18.86	-9.73	-1.42	5.43	10.54	13.85	15.40	15.29	13.66	10.82	7.22	3.44	0.09	-2.39	4.84	3.01	2.58	2.79	3.18	3.40	3.26	2.79	2.13	1.43	0.74	-0.01	-1.04	-2.53	-4.58	-7.13	-10.01	-27.53	19.35	16.31	13.26	10.08	6.62	2.79	-1.43	-5.85	-10.07	-13.49	-15.38	-15.08	-12.16	-6.60	1.19	10.45	16.80	-24.06	-14.57	-6.10	0.85	6.00	9.22	10.56	10.26	8.65	6.20	3.40	0.69	-1.52	-2.93	-3.44	-3.14	10.49	4.00	4.95	5.65	5.90	5.73	5.31	4.76	4.14	3.30	2.07	0.25	-2.22	-5.29	-8.85	-12.75	-16.88	-25.85	15.20	10.90	6.60	2.26	-2.18	-6.72	-11.15	-14.96	-17.34	-17.45	-14.69	-8.95	-0.66	9.30	19.86	30.01	24.07	-10.94	-3.59	1.98	5.75	7.83	8.34	7.51	5.66	3.22	0.69	-1.53	-3.24	-4.43	-5.24	-5.80	-6.14	9.60	8.24	8.42	8.76	9.05	8.99	8.34	7.06	5.17	2.77	-0.05	-3.19	-6.53	-9.88	-13.01	-15.82	-18.29	-26.21	15.29	13.15	10.99	8.75	6.37	3.70	0.59	-3.04	-7.00	-10.76	-13.46	-14.20	-12.26	-7.39	0.05	9.20	16.57	-23.83	-14.53	-6.47	-0.03	4.71	7.83	9.47	9.75	8.81	6.89	4.35	1.69	-0.62	-2.21	-2.93	-2.83	12.78	1.66	2.70	3.86	4.95	5.80	6.27	6.21	5.54	4.25	2.41	0.14	-2.48	-5.40	-8.59	-11.95	-15.35	-23.47	17.68	14.80	12.32	10.10	7.85	5.20	1.92	-2.01	-6.27	-10.29	-13.31	-14.59	-13.55	-9.95	-3.92	4.04	14.22	-24.56	-15.35	-6.94	-0.03	5.00	8.16	9.65	9.80	8.87	7.11	4.75	2.14	-0.28	-2.12	-3.09	-3.18	9.69	1.88	2.69	3.47	4.06	4.48	4.80	5.05	5.11	4.72	3.62	1.60	-1.29	-4.78	-8.48	-11.98	-14.98	-22.02	14.34	12.48	10.92	9.30	7.19	4.23	0.25	-4.56	-9.58	-13.83	-16.17	-15.69	-11.93	-5.10	3.99	14.14	17.57	-15.48	-6.76	0.07	4.78	7.45	8.37	7.90	6.41	4.30	1.98	-0.19	-1.95	-3.21	-4.03	-4.60	-5.09	8.70	3.32	2.92	2.74	2.93	3.48	4.23	4.91	5.16	4.73	3.48	1.44	-1.25	-4.41	-7.84	-11.31	-14.60	-25.66	16.86	14.45	12.47	10.66	8.65	6.03	2.54	-1.80	-6.65	-11.28	-14.75	-16.10	-14.62	-10.05	-2.77	6.38	16.69	-26.09	-16.64	-8.45	-1.96	2.79	5.98	7.93	8.89	9.01	8.36	6.99	5.00	2.64	0.27	-1.73	-3.07	11.64	1.38	1.42	1.85	2.41	2.86	3.07	3.01	2.72	2.26	1.70	1.02	0.08	-1.43	-3.79	-7.15	-11.34	-27.22	22.92	18.51	14.75	11.82	9.51	7.37	4.95	1.97	-1.62	-5.62	-9.70	-13.36	-16.07	-17.17	-16.05	-12.28	8.72	-41.75	-33.10	-23.25	-13.46	-4.92	1.58	5.85	8.27	9.52	10.31	11.12	12.12	13.23	14.22	14.94	15.35	35.26	-10.97	-10.75	-10.29	-9.39	-7.92	-5.88	-3.44	-0.82	1.71	3.91	5.65	7.01	8.17	9.39	10.90	12.74	50.39	-0.32	1.84	3.99	6.21	8.74	11.86	15.73	20.10	24.09	26.11	24.05	15.77	-0.10	-23.41	-52.13	-82.59	-34.25	-25.76	-46.94	-58.91	-60.94	-53.95	-40.02	-21.87	-2.37	15.79	30.51	40.62	46.01	47.50	46.32	43.67	40.41	-18.15	20.97	17.92	15.42	13.59	12.17	10.52	7.81	3.61	-1.81	-7.48	-12.16	-14.99	-15.96	-15.91	-16.10	-17.64	-71.22	32.00	26.87	20.68	14.19	8.01	2.53	-2.08	-5.71	-8.38	-10.21	-11.43	-12.34	-13.13	-13.76	-13.96	-13.25	-36.58	-45.79	-41.97	-36.34	-29.09	-20.65	-11.63	-2.73	5.35	12.06	17.13	20.61	22.83	24.36	25.87	28.11	31.84	101.86	-100.54	-91.34	-78.33	-61.28	-40.64	-17.72	5.48	26.62	43.66	55.18	60.56	59.88	53.71	42.96	28.86	12.94	25.13	73.62	58.95	46.59	36.57	28.12	20.04	11.19	1.04	-10.18	-21.60	-31.92	-39.88	-44.57	-45.64	-43.43	-38.83	-4.91	-2.97	2.93	8.00	11.68	13.69	13.95	12.51	9.61	5.60	1.01	-3.65	-7.96	-11.70	-14.89	-17.65	-20.10	-24.44	-2.76	-4.63	-6.04	-6.84	-6.93	-6.33	-5.10	-3.39	-1.37	0.82	3.04	5.19	7.11	8.58	9.38	9.22	-11.09	-5.41	-7.82	-11.08	-14.66	-17.80	-19.66	-19.54	-16.98	-11.95	-4.88	3.44	12.04	20.02	26.75	31.93	35.58	15.88	10.90	12.04	12.17	11.35	9.65	7.18	4.17	1.00	-2.01	-4.62	-6.73	-8.41	-9.82	-11.09	-12.30	-13.48	-22.29	23.51	22.24	20.70	18.72	16.14	13.04	9.49	5.57	1.21	-3.74	-9.37	-15.43	-21.23	-25.75	-27.96	-27.21	-7.28	-38.47	-32.29	-24.56	-16.16	-7.76	0.23	7.48	13.61	18.08	20.37	20.19	17.62	13.23	7.89	2.57	-1.97	-21.44	8.94	7.07	6.45	6.67	7.22	7.53	7.12	5.68	3.14	-0.20	-3.85	-7.22	-9.88	-11.70	-12.91	-14.03	-28.82	-8.24	-10.67	-13.93	-17.51	-20.57	-22.18	-21.62	-18.54	-13.04	-5.55	3.29	12.80	22.26	31.01	38.43	44.06	9.73	9.11	10.80	10.94	10.05	8.58	6.72	4.43	1.56	-1.85	-5.44	-8.57	-10.56	-11.03	-10.09	-8.28	-6.33	-1.23	6.13	6.90	6.93	6.30	5.05	3.15	0.58	-2.52	-5.79	-8.63	-10.33	-10.28	-8.05	-3.53	3.02	11.07	39.58	-20.92	-12.06	-3.83	3.32	9.09	13.28	15.71	16.20	14.65	11.15	6.11	0.16	-5.96	-11.53	-16.06	-19.37	17.99	0.09	-1.10	-1.65	-1.82	-1.77	-1.52	-0.97	-0.01	1.35	2.88	4.13	4.52	3.60	1.21	-2.37	-6.52	36.18	-28.53	-31.12	-31.76	-30.01	-25.84	-19.58	-11.88	-3.55	4.62	12.04	18.40	23.62	27.72	30.70	32.43	32.70	33.57	33.95	30.97	26.63	21.43	15.91	10.53	5.52	0.84	-3.71	-8.31	-12.95	-17.45	-21.52	-24.89	-27.49	-29.51	-17.71	19.93	17.78	14.90	11.04	6.21	0.66	-5.15	-10.62	-15.03	-17.69	-17.96	-15.45	-10.12	-2.37	7.00	16.94	6.71	1.93	9.95	15.98	19.76	21.20	20.29	17.14	12.04	5.53	-1.60	-8.55	-14.68	-19.70	-23.61	-26.64	-28.97	-39.92	15.91	14.65	13.69	12.67	11.04	8.36	4.52	-0.20	-5.15	-9.55	-12.74	-14.36	-14.26	-12.42	-8.80	-3.40	1.24	-37.46	-29.07	-20.08	-11.37	-3.72	2.35	6.70	9.46	10.89	11.29	10.94	10.17	9.43	9.21	9.85	11.43	-7.84	22.60	24.36	24.77	22.99	18.71	12.35	4.97	-2.13	-7.81	-11.52	-13.45	-14.41	-15.49	-17.67	-21.48	-26.80	-14.81	-26.03	-32.07	-36.79	-39.17	-38.42	-34.16	-26.40	-15.66	-2.90	10.56	23.27	33.95	41.73	46.35	48.09	47.67	24.11	7.11	5.22	3.93	3.87	5.31	8.09	11.54	14.63	16.11	14.90	10.34	2.45	-8.08	-20.09	-32.20	-43.15	-21.25	-6.64	-12.78	-16.00	-16.31	-14.05	-9.81	-4.44	1.06	5.79	9.17	11.05	11.69	11.52	10.93	10.03	8.77	-12.44	-1.80	-4.04	-6.47	-8.53	-9.68	-9.48	-7.85	-5.08	-1.70	1.70	4.69	7.08	8.87	10.19	11.02	11.15	-21.34	19.12	16.69	12.52	6.71	-0.20	-7.33	-13.62	-18.02	-19.77	-18.52	-14.40	-8.00	-0.19	7.96	15.49	21.51	-7.50	11.62	13.20	12.47	9.81	5.85	1.37	-2.87	-6.27	-8.49	-9.46	-9.29	-8.19	-6.36	-4.00	-1.23	1.76	-3.26	0.56	3.30	5.29	5.98	4.84	1.67	-3.21	-8.81	-13.69	-16.27	-15.41	-10.78	-2.96	6.76	16.85	25.92	17.21	12.56	17.28	19.47	19.24	16.82	12.58	7.14	1.29	-4.16	-8.62	-11.86	-13.99	-15.35	-16.37	-17.37	-18.58	-8.90	6.02	4.28	2.51	0.98	-0.07	-0.63	-0.94	-1.42	-2.44	-4.00	-5.58	-6.30	-5.26	-1.89	3.74	10.98	14.97	-5.06	2.36	8.56	13.08	15.70	16.35	15.03	11.92	7.35	1.89	-3.82	-9.15	-13.73	-17.45	-20.37	-22.60	-14.16	4.96	4.14	4.14	4.89	6.07	7.21	7.76	7.26	5.44	2.30	-1.86	-6.42	-10.46	-12.92	-12.85	-9.69	10.94	-28.67	-20.32	-10.95	-1.83	5.99	11.86	15.49	16.81	15.93	13.06	8.68	3.48	-1.75	-6.27	-9.65	-11.80	-4.19	2.23	1.86	1.94	2.28	2.80	3.42	4.09	4.65	4.89	4.49	3.12	0.57	-3.13	-7.46	-11.54	-14.29	6.13	-25.07	-22.74	-17.74	-10.76	-2.84	4.91	11.49	16.14	18.40	18.07	15.32	10.59	4.65	-1.59	-7.23	-11.62	-6.28	-2.07	-3.46	-3.77	-3.48	-2.96	-2.40	-1.80	-1.04	0.00	1.28	2.64	3.76	4.32	4.09	3.14	1.73	29.47	-35.26	-35.62	-34.36	-30.90	-25.03	-16.98	-7.41	2.72	12.27	20.29	26.01	28.98	29.10	26.68	22.37	17.14	57.16	-15.60	-19.43	-21.29	-20.92	-18.50	-14.53	-9.62	-4.29	1.09	6.30	11.20	15.65	19.43	22.26	23.92	24.39	104.63	-23.48	-24.00	-23.59	-21.13	-15.75	-7.22	3.87	16.03	27.16	34.99	37.58	33.66	22.76	5.09	-18.63	-47.35	-128.40	153.35	119.13	85.02	53.08	25.03	1.89	-16.09	-29.39	-38.87	-45.45	-49.84	-52.44	-53.39	-52.78	-50.88	-48.38	-126.01	-48.77	-48.33	-49.83	-52.41	-53.98	-51.82	-43.64	-28.65	-7.99	15.53	38.32	56.93	68.95	73.32	70.44	61.90	-182.21	106.10	92.79	79.48	66.24	51.96	35.07	14.46	-9.68	-35.47	-59.61	-77.96	-86.49	-82.34	-64.55	-34.51	4.49	201.73	-335.51	-289.78	-243.33	-195.07	-142.98	-86.14	-26.23	32.41	84.21	124.75	152.56	169.43	179.19	185.86	192.03	198.54	231.19	175.33	180.14	182.09	179.46	170.00	151.15	120.75	78.28	25.59	-33.13	-92.44	-147.25	-194.38	-233.36	-266.17	-296.04	-277.24	182.35	150.36	116.40	81.90	49.01	19.65	-5.09	-25.18	-41.47	-55.20	-67.39	-78.22	-86.51	-89.70	-84.25	-66.63	33.84	-345.64	-299.19	-241.26	-177.06	-112.76	-53.77	-3.36	37.89	71.59	100.26	126.01	149.57	170.17	186.02	195.19	196.31	79.47	143.40	128.38	107.28	82.36	56.13	30.92	8.38	-10.79	-26.87	-40.74	-53.46	-65.62	-77.19	-87.46	-95.29	-99.43	15.38	-34.65	-28.41	-16.59	-0.27	18.22	35.58	48.22	53.33	49.74	38.23	21.10	1.21	-19.03	-38.18	-55.90	-72.58	-259.61	186.05	168.99	149.77	126.53	97.14	60.09	15.53	-33.77	-82.20	-122.32	-146.84	-150.75	-132.98	-96.59	-47.30	8.58	132.12	-325.48	-268.21	-211.00	-152.11	-90.01	-24.98	39.94	98.98	145.03	171.83	176.29	159.80	127.97	88.60	49.05	14.25	40.02	78.19	56.42	39.98	27.99	19.72	14.08	9.26	2.95	-6.53	-19.29	-33.33	-45.10	-50.62	-47.10	-33.88	-12.77	150.12	-97.30	-71.25	-47.85	-28.61	-13.45	-1.26	9.25	18.76	27.07	33.39	36.81	36.83	33.69	28.20	21.47	14.28	51.19	105.75	97.49	87.53	75.13	60.11	42.98	24.75	6.51	-10.87	-26.89	-41.48	-54.98	-68.16	-82.24	-98.42	-117.29	-34.72	-52.12	-72.23	-87.94	-95.44	-92.24	-78.16	-55.37	-27.55	1.37	28.31	51.65	71.04	86.82	99.37	108.61	113.87	-64.30	143.67	137.92	125.79	107.69	84.81	58.72	30.96	2.78	-24.81	-50.89	-74.34	-93.83	-107.94	-115.50	-115.85	-109.15	-152.41	-8.47	7.89	25.29	40.88	52.26	57.92	57.35	50.79	38.90	22.46	2.27	-20.68	-45.25	-70.15	-94.29	-117.10	-345.24	54.07	32.70	10.43	-13.62	-39.39	-65.34	-88.28	-103.74	-107.06	-94.76	-65.73	-21.69	33.34	94.33	156.81	217.92	237.94	-306.53	-249.76	-193.89	-137.97	-81.73	-26.05	26.90	73.89	111.29	136.03	146.62	143.55	128.96	105.88	77.27	45.57	121.71	128.89	96.37	65.79	38.60	15.87	-2.04	-15.47	-25.19	-32.07	-36.76	-39.67	-40.95	-40.72	-39.31	-37.36	-35.93	33.46	51.93	48.49	41.34	30.69	17.69	4.21	-7.81	-16.91	-22.52	-24.96	-25.13	-23.96	-22.08	-19.74	-17.03	-14.23	6.75	14.83	16.01	15.46	13.03	9.16	4.61	0.11	-3.92	-7.34	-10.09	-12.01	-12.73	-11.81	-9.15	-5.20	-0.93	-8.72	17.93	19.40	18.42	15.08	9.86	3.38	-3.71	-10.76	-16.89	-20.97	-21.90	-19.00	-12.44	-3.20	7.23	17.51	40.94	-22.81	-14.49	-6.96	-0.18	5.41	8.97	9.83	7.94	4.17	0.03	-2.99	-4.00	-2.77	0.45	5.37	11.95	89.94	-28.63	-18.27	-6.33	6.24	17.98	27.15	32.15	31.91	26.29	16.14	3.28	-9.90	-20.90	-27.52	-28.08	-21.49	100.72	-18.19	2.71	28.58	56.16	81.27	99.56	107.56	103.39	86.83	59.00	21.75	-22.88	-72.71	-125.42	-178.44	-229.18	-365.64	190.87	150.19	115.13	84.75	57.76	33.11	10.25	-11.12	-31.29	-50.66	-69.27	-86.28	-99.49	-105.75	-101.97	-86.26	-73.12	-351.29	-314.10	-270.33	-223.04	-174.32	-125.05	-75.19	-24.15	28.58	82.83	137.40	189.69	236.19	273.29	298.45	311.07	163.21	76.29	69.64	58.08	44.33	30.21	16.84	4.92	-5.03	-12.82	-18.84	-24.11	-29.96	-37.40	-46.70	-57.31	-68.15	39.01	45.96	37.05	29.01	21.02	12.13	1.82	-9.60	-20.87	-30.07	-35.19	-34.82	-28.68	-17.72	-3.90	10.48	23.33	47.20	25.00	31.15	33.48	32.24	27.87	21.05	12.55	3.23	-6.03	-14.39	-21.20	-26.08	-28.94	-30.08	-30.11	-29.74	-2.97	20.60	20.29	19.57	18.63	17.53	16.12	13.92	10.46	5.45	-1.00	-8.49	-16.30	-23.53	-29.21	-32.26	-31.70	25.63	-55.44	-46.21	-33.34	-18.30	-3.04	10.56	21.08	27.72	30.29	29.08	24.69	17.94	9.87	1.67	-5.55	-11.00	3.47	7.76	6.13	5.62	5.53	5.38	5.02	4.53	3.97	3.32	2.39	0.88	-1.43	-4.73	-9.08	-14.49	-20.75	8.72	-32.62	-38.63	-42.74	-43.65	-40.41	-32.91	-21.91	-8.81	4.84	17.67	28.72	37.35	43.05	45.45	44.41	40.18	14.21	28.10	20.32	12.63	6.14	1.44	-1.43	-2.83	-3.36	-3.63	-4.06	-4.86	-6.05	-7.58	-9.35	-11.42	-13.99	-8.13	4.96	0.40	-5.47	-12.40	-19.60	-25.78	-29.48	-29.46	-25.09	-16.57	-4.84	8.70	22.47	35.02	45.15	52.04	18.68	28.45	27.95	24.16	17.91	10.30	2.60	-4.04	-8.84	-11.52	-12.40	-12.16	-11.63	-11.48	-12.00	-13.05	-14.25	-14.87	18.36	17.83	17.47	16.68	14.71	10.90	5.01	-2.53	-10.67	-17.89	-22.60	-23.55	-20.14	-12.59	-1.81	10.88	25.56	-16.40	-4.08	6.41	14.40	19.47	21.41	20.22	16.23	10.12	2.85	-4.47	-10.87	-15.73	-18.79	-20.24	-20.46	-3.78	9.41	10.21	10.94	11.37	11.43	11.06	10.22	8.72	6.32	2.78	-1.99	-7.80	-14.04	-19.75	-23.80	-25.09	14.92	-41.53	-35.51	-26.23	-14.80	-2.76	8.29	17.09	22.89	25.43	24.82	21.35	15.50	7.97	-0.25	-8.02	-14.21	-4.00	0.79	-0.76	-0.39	1.09	2.90	4.48	5.56	6.11	6.10	5.43	3.99	1.61	-1.79	-6.22	-11.52	-17.36	2.76	-29.96	-34.95	-38.01	-38.12	-34.55	-27.25	-16.86	-4.65	7.89	19.35	28.57	34.78	37.56	36.82	32.89	26.52	5.77	15.85	8.25	1.92	-2.36	-4.40	-4.53	-3.44	-1.83	-0.30	0.80	1.32	1.22	0.42	-1.22	-3.89	-7.74	-12.46	5.45	-0.63	-7.37	-14.20	-20.29	-24.69	-26.38	-24.59	-19.09	-10.35	0.46	11.83	22.27	30.75	36.73	40.09	5.58	22.87	21.29	17.61	12.31	6.21	0.23	-4.74	-8.18	-9.98	-10.40	-9.91	-8.97	-7.97	-7.14	-6.64	-6.53	-8.35	7.10	6.31	4.87	2.53	-0.88	-5.28	-10.10	-14.37	-16.90	-16.69	-13.26	-6.80	1.87	11.56	21.00	29.08	10.06	16.55	19.72	20.04	17.73	13.40	7.87	2.08	-3.24	-7.59	-10.76	-12.71	-13.56	-13.51	-12.86	-11.98	-11.24	-14.11	13.24	13.01	12.25	11.05	9.39	7.06	3.77	-0.68	-6.05	-11.52	-15.81	-17.55	-15.72	-10.11	-1.41	9.01	9.24	-3.80	5.46	12.49	16.83	18.36	17.16	13.57	8.17	1.85	-4.42	-9.78	-13.63	-15.81	-16.44	-15.79	-14.20	-8.92	6.12	8.46	10.54	11.96	12.44	11.88	10.25	7.54	3.68	-1.22	-6.80	-12.25	-16.41	-18.09	-16.48	-11.58	6.10	-19.12	-10.33	-1.62	5.94	11.68	15.33	16.79	16.07	13.26	8.67	2.89	-3.25	-8.89	-13.34	-16.29	-17.79	-12.83	0.78	1.24	2.28	3.72	5.31	6.77	7.71	7.83	6.89	4.83	1.73	-2.25	-6.73	-11.02	-14.12	-14.94	4.24	-29.69	-24.05	-15.77	-6.27	2.77	9.90	14.33	15.99	15.30	12.91	9.45	5.48	1.55	-1.85	-4.33	-5.72	-10.40	8.51	8.74	9.14	9.37	9.24	8.68	7.70	6.28	4.32	1.65	-1.82	-6.07	-10.83	-15.44	-19.01	-20.48	7.27	-36.64	-31.83	-24.06	-14.33	-4.03	5.51	13.24	18.51	21.08	20.95	18.39	13.84	8.07	2.00	-3.38	-7.27	-3.86	1.90	1.78	2.98	4.78	6.43	7.47	7.75	7.38	6.52	5.19	3.16	0.04	-4.48	-10.36	-17.03	-23.53	-1.05	-31.47	-34.16	-33.77	-30.15	-23.70	-15.15	-5.46	4.34	13.22	20.31	24.95	26.85	26.13	23.34	19.38	15.31	10.10	0.94	-0.78	-0.88	0.28	2.02	3.59	4.47	4.49	3.79	2.67	1.36	-0.06	-1.72	-3.80	-6.50	-9.93	-2.42	-1.62	-6.49	-11.68	-16.51	-20.07	-21.42	-19.86	-15.31	-8.36	-0.11	8.19	15.47	21.07	24.67	26.23	25.86	8.10	13.27	9.91	5.86	1.85	-1.50	-3.71	-4.64	-4.39	-3.32	-1.89	-0.63	0.02	-0.22	-1.41	-3.38	-5.83	-14.66	14.35	11.88	9.54	7.20	4.57	1.41	-2.43	-6.72	-10.90	-14.04	-15.18	-13.51	-8.82	-1.51	7.44	16.77	12.96	-2.28	4.69	9.57	12.25	12.81	11.42	8.39	4.21	-0.45	-4.80	-8.15	-10.09	-10.59	-10.05	-9.01	-7.99	-5.82	11.47	11.72	11.60	11.11	10.21	8.79	6.83	4.41	1.69	-1.15	-4.13	-7.35	-10.93	-14.79	-18.44	-21.08	6.81	-34.42	-32.46	-27.59	-20.20	-11.19	-1.71	7.09	14.29	19.28	21.72	21.56	19.02	14.62	9.06	3.16	-2.29	-2.30	2.43	-0.55	-2.01	-2.07	-1.03	0.64	2.37	3.65	4.06	3.50	2.15	0.42	-1.29	-2.77	-4.07	-5.47	-14.41	4.81	2.29	-0.98	-4.81	-8.87	-12.66	-15.52	-16.78	-15.80	-12.26	-6.25	1.57	10.21	18.54	25.64	30.89	6.20	13.46	14.58	13.82	11.44	7.84	3.57	-0.72	-4.41	-7.05	-8.47	-8.76	-8.27	-7.42	-6.66	-6.34	-6.60	-13.39	12.19	11.09	9.98	8.96	8.01	6.90	5.39	3.29	0.56	-2.70	-6.27	-9.73	-12.46	-13.68	-12.63	-8.90	7.56	-23.55	-15.48	-6.81	1.19	7.55	11.72	13.67	13.63	11.98	9.12	5.42	1.31	-2.82	-6.53	-9.38	-11.03	-5.24	1.45	2.30	3.81	5.27	6.07	5.89	4.84	3.30	1.76	0.45	-0.74	-2.09	-3.93	-6.39	-9.34	-12.61	-5.70	-15.50	-18.74	-21.56	-23.46	-23.73	-21.72	-17.11	-10.15	-1.62	7.30	15.43	21.86	26.12	28.17	28.19	26.59	5.66	12.42	8.87	5.06	1.50	-1.34	-3.09	-3.58	-3.00	-1.78	-0.49	0.32	0.32	-0.61	-2.38	-4.75	-7.45	-16.26	11.70	9.07	6.69	4.49	2.22	-0.38	-3.47	-6.92	-10.19	-12.44	-12.79	-10.64	-5.90	1.04	9.36	18.12	11.09	-0.96	6.06	11.25	14.24	14.91	13.34	9.93	5.32	0.28	-4.45	-8.33	-11.03	-12.55	-13.05	-12.80	-12.09	-7.06	6.95	7.75	8.20	8.13	7.51	6.44	5.15	3.83	2.56	1.19	-0.60	-3.14	-6.70	-11.13	-15.92	-20.21	-0.92	-29.10	-29.46	-27.00	-21.84	-14.67	-6.49	1.60	8.68	14.10	17.57	19.03	18.64	16.78	13.94	10.67	7.50	2.73	1.20	-0.65	-1.53	-1.40	-0.34	1.35	3.22	4.69	5.30	4.84	3.37	1.26	-1.19	-3.78	-6.58	-9.77	-15.47	4.64	0.15	-4.89	-10.10	-14.88	-18.47	-20.08	-19.10	-15.36	-9.13	-1.18	7.49	15.90	23.26	29.01	32.81	4.18	14.78	14.20	11.62	7.59	2.91	-1.51	-4.86	-6.74	-7.16	-6.46	-5.22	-4.00	-3.24	-3.15	-3.78	-4.98	-18.47	16.13	14.45	12.68	10.69	8.17	4.80	0.49	-4.49	-9.46	-13.50	-15.68	-15.34	-12.28	-6.73	0.74	9.33	11.13	-11.43	-3.14	3.88	9.09	12.17	13.02	11.85	9.06	5.20	0.90	-3.21	-6.64	-9.03	-10.35	-10.74	-10.61	-13.21	13.94	13.85	13.26	12.16	10.69	8.98	7.12	4.98	2.38	-0.90	-4.95	-9.56	-14.20	-18.05	-20.14	-19.57	7.88	-36.97	-30.30	-21.39	-11.42	-1.64	6.85	13.35	17.47	19.11	18.39	15.63	11.36	6.34	1.39	-2.71	-5.51	-3.29	4.26	3.99	4.35	4.86	5.15	5.07	4.64	3.94	3.03	1.90	0.38	-1.69	-4.43	-7.86	-11.80	-15.87	0.85	-23.65	-26.16	-26.87	-25.28	-21.24	-15.04	-7.36	0.89	8.74	15.37	20.17	22.81	23.26	21.66	18.44	14.24	7.09	3.62	-0.08	-2.43	-3.11	-2.29	-0.55	1.31	2.61	3.00	2.61	1.82	1.00	0.27	-0.66	-2.23	-4.84	-4.12	2.57	-2.22	-7.54	-12.73	-17.02	-19.63	-19.84	-17.24	-11.93	-4.60	3.63	11.55	18.21	23.11	26.16	27.45	7.69	15.25	13.30	9.98	5.77	1.36	-2.48	-5.18	-6.54	-6.73	-6.16	-5.22	-4.21	-3.24	-2.40	-1.81	-1.63	-5.49	11.07	9.74	7.42	4.13	-0.01	-4.66	-9.27	-13.09	-15.24	-15.00	-12.05	-6.65	0.41	7.95	14.86	20.33	8.64	9.83	11.57	11.49	9.75	6.51	2.16	-2.62	-6.95	-9.93	-10.96	-10.02	-7.61	-4.56	-1.63	0.69	2.28	-0.53	12.39	12.74	12.33	10.88	8.13	4.10	-0.82	-5.94	-10.41	-13.48	-14.57	-13.40	-9.98	-4.57	2.35	10.19	30.06	-12.21	-4.22	3.10	9.21	13.59	15.77	15.42	12.60	7.73	1.64	-4.60	-9.81	-13.05	-13.81	-12.25	-9.18	15.70	8.58	11.23	12.47	12.38	11.57	10.86	10.74	11.08	11.08	9.47	5.12	-2.48	-12.77	-24.13	-34.28	-41.00	-13.73	-13.43	-10.36	-3.50	5.16	13.51	19.94	23.52	24.00	21.41	15.97	8.03	-1.77	-12.44	-22.65	-30.99	-36.36	-45.12	-6.88	-5.57	-1.98	2.63	6.98	10.22	11.91	12.07	10.83	8.43	5.00	0.69	-4.38	-10.13	-16.48	-23.31	-50.85	-24.59	-31.15	-36.16	-38.26	-36.28	-29.75	-19.28	-6.45	6.63	18.08	26.69	32.17	34.89	35.53	34.74	33.11	14.17	-33.84	-35.36	-35.65	-34.02	-30.17	-24.37	-17.29	-9.66	-2.01	5.48	13.00	20.91	29.58	39.41	50.64	63.29	101.13	-10.04	3.59	15.69	24.49	28.55	27.24	21.10	11.76	1.43	-7.79	-14.55	-18.53	-20.29	-20.83	-20.93	-20.81	94.62	-13.62	-11.79	-8.51	-4.05	0.57	3.96	4.81	2.45	-2.68	-8.98	-13.91	-14.59	-8.74	4.48	24.00	46.61	8.42	153.84	168.12	171.22	160.68	136.55	101.53	60.00	16.88	-23.76	-59.58	-90.08	-116.13	-139.07	-160.17	-180.23	-199.74	-219.28	8.71	-10.34	-28.70	-45.09	-57.51	-63.85	-62.67	-53.89	-38.77	-19.44	2.16	24.84	48.35	72.93	98.58	124.62	35.20	-104.76	-82.13	-63.10	-47.94	-36.08	-26.41	-17.70	-8.87	0.96	12.41	25.79	40.92	56.95	72.27	84.85	92.76	88.22	41.83	38.16	30.05	19.64	9.12	0.08	-6.84	-11.81	-15.31	-17.78	-19.23	-19.35	-17.82	-14.64	-10.32	-5.77	69.49	16.70	18.78	18.69	16.32	11.88	5.84	-1.02	-7.58	-12.56	-14.88	-14.13	-10.97	-7.11	-4.70	-5.43	-9.80	36.08	16.53	8.67	1.97	-2.35	-4.22	-4.51	-4.42	-4.90	-6.20	-7.82	-8.67	-7.60	-3.89	2.20	9.39	15.74	-76.99	132.28	131.45	125.68	114.84	98.77	77.07	49.41	16.38	-19.92	-55.75	-86.76	-109.36	-121.83	-124.54	-119.29	-108.39	-130.79	-40.21	-24.40	-9.47	2.03	7.87	7.20	1.31	-6.48	-12.08	-12.38	-6.54	3.67	14.83	23.35	26.81	24.48	-122.52	8.89	-1.83	-14.14	-26.26	-36.50	-43.16	-44.66	-39.84	-28.56	-11.96	7.44	26.33	41.58	51.35	55.55	55.81	101.66	-169.53	-169.51	-166.13	-157.78	-143.25	-121.41	-91.39	-53.02	-7.49	42.29	92.00	136.92	173.26	199.10	214.61	221.39	260.92	62.23	57.33	48.65	37.38	25.29	14.82	8.37	6.97	9.28	11.68	9.49	-1.19	-21.96	-51.80	-88.15	-128.35	-153.24	243.18	198.21	150.63	101.18	52.31	7.88	-28.28	-53.95	-69.42	-77.07	-80.23	-81.89	-84.00	-87.44	-92.42	-98.69	-260.06	1.26	-4.98	-9.10	-9.84	-6.92	-1.21	5.47	11.13	14.24	14.08	10.71	4.87	-2.14	-8.34	-11.20	-7.96	60.08	-316.29	-294.32	-261.86	-219.87	-170.33	-115.77	-58.82	-2.10	52.01	101.45	144.69	181.02	210.55	233.94	251.78	263.93	172.00	157.43	154.57	142.46	121.72	95.07	66.65	40.49	18.73	0.83	-16.32	-37.07	-65.20	-102.31	-146.80	-193.84	-236.49	15.37	-111.21	-126.81	-126.35	-113.74	-95.16	-76.08	-58.51	-40.43	-17.42	13.98	53.42	95.73	132.71	156.38	162.32	151.10	-57.68	200.54	170.92	140.51	111.53	83.32	53.78	21.40	-13.39	-48.01	-78.69	-101.87	-115.43	-119.17	-114.41	-103.24	-87.78	-145.58	18.03	36.62	53.78	66.92	73.39	71.26	60.13	41.33	17.47	-8.48	-33.92	-56.80	-75.32	-87.53	-91.40	-85.53	43.44	-259.02	-235.70	-207.61	-177.52	-146.62	-114.09	-77.84	-35.96	11.66	62.90	113.81	159.85	197.29	224.04	239.70	245.14	84.34	200.71	189.45	171.58	148.46	121.80	93.66	65.81	38.96	12.33	-16.31	-49.95	-91.09	-140.36	-195.44	-250.83	-298.81	18.40	-265.41	-276.59	-264.31	-230.67	-180.73	-120.47	-54.94	12.14	77.48	136.82	184.56	214.79	223.74	211.80	183.92	147.86	-78.39	207.88	174.85	145.80	117.84	87.06	51.01	10.12	-32.36	-71.43	-102.03	-120.51	-125.53	-118.07	-100.65	-76.30	-47.68	91.06	-186.37	-155.48	-126.71	-102.31	-83.69	-70.24	-58.75	-44.30	-22.13	10.05	50.80	95.28	136.97	169.92	190.28	196.65	118.07	162.53	143.40	114.30	77.92	37.85	-1.55	-35.71	-60.95	-75.32	-78.95	-73.71	-62.60	-49.12	-37.01	-29.94	-31.16	-15.15	90.45	68.28	37.78	3.38	-29.10	-53.88	-66.73	-66.06	-53.40	-32.91	-10.17	9.48	22.51	28.02	27.71	24.71	-3.35	10.52	10.85	14.27	19.78	25.76	30.69	33.55	33.57	30.03	22.12	9.32	-8.06	-28.53	-49.74	-69.13	-84.95	-105.71	5.58	-3.16	-10.41	-17.62	-25.34	-32.91	-38.54	-39.89	-35.03	-23.32	-6.07	13.74	32.56	48.00	60.24	72.11	211.81	-229.38	-204.94	-169.98	-125.17	-73.74	-20.34	30.06	72.94	104.65	122.74	126.42	116.97	97.80	73.73	49.59	28.65	16.67	206.76	191.81	175.50	154.34	126.14	90.84	50.46	8.37	-31.86	-67.50	-97.39	-121.88	-142.59	-161.55	-180.61	-200.83	-243.15	37.60	16.06	-3.90	-20.17	-30.78	-34.38	-30.63	-20.60	-6.76	7.42	18.24	22.94	20.85	13.93	6.45	3.70	-279.99	46.67	62.68	85.41	108.12	122.45	121.09	100.19	60.61	8.06	-48.30	-97.99	-131.75	-143.78	-132.90	-102.33	-58.17	-10.80	-276.43	-224.53	-175.47	-131.15	-91.95	-57.09	-24.65	7.97	42.96	80.40	117.18	147.20	163.65	162.33	144.12	115.41	121.41	-46.19	-66.57	-71.83	-60.96	-37.48	-7.30	23.48	50.02	68.84	77.39	73.78	57.39	30.13	-2.83	-33.63	-54.20	50.07	11.76	20.82	37.66	52.18	55.14	42.37	16.61	-13.85	-38.93	-51.25	-48.97	-36.00	-19.86	-8.22	-5.89	-13.62	29.31	-7.70	-24.85	-39.89	-50.30	-55.96	-58.27	-58.57	-56.68	-50.38	-36.26	-11.80	22.46	61.91	99.05	126.53	140.66	191.89	-19.27	-21.46	-20.34	-10.22	9.69	35.24	59.64	76.46	81.66	73.97	53.92	22.83	-17.35	-63.43	-110.26	-151.09	119.57	-106.96	-118.38	-112.95	-94.49	-68.87	-41.34	-14.53	11.57	37.89	64.17	87.36	102.22	103.20	87.08	54.44	9.62	-140.67	219.42	170.21	127.63	94.72	72.01	57.72	48.07	37.99	22.13	-3.39	-39.42	-83.14	-128.85	-170.15	-202.16	-222.79	-304.65	-68.63	-69.64	-64.06	-53.76	-40.46	-26.22	-13.34	-3.59	2.89	7.90	14.32	24.75	40.21	59.97	82.59	107.12	101.53	-272.34	-242.34	-208.09	-169.77	-128.85	-87.74	-48.61	-12.58	20.81	53.24	86.89	123.32	162.69	203.45	242.74	277.18	268.36	136.79	152.78	156.80	148.33	128.20	98.79	63.76	26.96	-8.74	-42.15	-73.65	-104.08	-133.58	-161.13	-185.07	-204.00	-40.53	91.30	82.11	75.46	68.81	59.33	44.30	22.11	-6.54	-37.89	-65.90	-84.27	-88.85	-79.04	-57.49	-28.30	4.82	92.66	-94.06	-61.03	-32.41	-11.97	-2.60	-4.24	-12.67	-20.56	-20.44	-8.30	14.26	40.37	60.75	67.42	56.50	29.03	-66.66	149.04	103.94	58.56	16.97	-17.98	-44.07	-59.59	-63.77	-57.57	-43.93	-27.29	-12.24	-2.05	2.15	1.15	-3.38	-184.02	107.23	98.55	87.31	72.79	55.07	35.39	15.71	-2.08	-17.05	-29.43	-40.44	-51.55	-63.83	-77.23	-90.28	-100.10	-103.81	-183.05	-175.06	-154.17	-121.08	-79.88	-37.20	-0.05	26.81	42.78	51.46	58.84	70.33	88.42	111.99	137.68	162.14	175.98	-95.89	-75.87	-55.44	-32.99	-8.91	14.39	33.68	46.47	52.01	51.18	45.47	35.93	23.00	7.01	-11.01	-29.00	30.81	100.97	90.73	86.06	85.55	86.17	84.31	77.02	62.62	40.88	12.61	-20.80	-57.87	-97.57	-139.40	-183.15	-228.08	-178.01	-63.11	-101.59	-128.82	-139.17	-129.52	-101.09	-59.55	-13.38	29.10	62.41	85.13	99.20	107.83	113.68	117.96	120.88	19.97	-75.20	-73.07	-68.79	-60.76	-48.65	-33.72	-18.19	-3.98	8.25	19.20	30.20	42.21	55.03	67.34	77.18	82.89	69.64	34.06	30.26	22.74	12.74	1.45	-9.93	-20.13	-27.80	-31.68	-30.98	-25.63	-16.26	-4.12	9.25	22.33	33.67	81.94	29.84	34.60	35.30	32.09	25.61	16.95	7.34	-2.13	-10.52	-17.26	-22.06	-24.91	-26.14	-26.30	-26.12	-26.29	10.44	44.19	42.15	39.09	35.10	30.19	24.15	16.79	8.03	-1.91	-12.56	-23.16	-32.78	-40.30	-44.59	-44.61	-39.86	29.55	-49.73	-37.28	-23.58	-10.75	-0.37	6.98	11.63	14.42	16.09	16.90	16.68	15.13	12.22	8.28	3.90	-0.54	-21.50	46.01	41.03	35.12	28.09	20.18	12.03	4.21	-2.96	-9.47	-15.46	-20.91	-25.49	-28.60	-29.70	-28.58	-25.53	42.98	-85.72	-80.95	-76.04	-70.66	-63.73	-53.77	-39.38	-19.90	4.08	30.50	56.09	76.96	89.43	90.98	81.03	61.15	-17.77	95.54	67.05	40.58	19.02	3.60	-6.03	-11.17	-13.44	-14.40	-15.27	-16.98	-20.08	-24.59	-29.97	-35.09	-38.71	-34.04	-23.61	-22.03	-18.15	-12.93	-7.49	-2.82	0.40	1.90	1.84	0.93	0.34	1.47	5.55	13.18	24.13	37.33	40.85	-23.61	-10.36	1.10	10.16	16.52	20.07	20.71	18.55	13.97	7.77	0.92	-5.62	-11.27	-15.90	-19.76	-23.20	-1.26	15.66	12.64	10.04	8.09	6.86	6.19	5.78	5.32	4.52	3.10	0.74	-2.98	-8.34	-15.22	-22.80	-29.61	11.14	-46.26	-46.42	-41.84	-33.03	-21.53	-9.37	1.66	10.45	16.75	20.90	23.50	25.04	25.73	25.64	24.91	23.88	53.55	-19.17	-18.47	-15.68	-10.48	-3.39	4.36	11.14	15.60	17.02	15.54	11.91	7.14	2.16	-2.37	-6.12	-9.20	-89.92	131.15	126.60	118.76	105.89	87.04	62.61	34.35	4.81	-23.56	-49.02	-70.81	-88.67	-102.38	-111.30	-114.47	-111.02	-70.75	-119.97	-103.88	-83.90	-62.49	-41.94	-23.72	-8.18	5.19	17.35	29.11	40.79	52.19	62.80	72.05	79.53	85.10	-3.09	21.11	22.93	22.94	21.14	17.58	12.41	5.90	-1.46	-9.00	-15.82	-20.94	-23.43	-22.68	-18.49	-11.10	-1.09	46.39	-38.60	-25.29	-11.28	2.65	15.42	25.64	31.99	33.56	30.27	22.88	12.76	1.41	-9.98	-20.75	-30.70	-39.92	-21.42	19.38	11.70	5.22	0.31	-2.78	-4.12	-4.07	-3.18	-2.01	-1.00	-0.44	-0.56	-1.52	-3.33	-5.71	-7.95	7.10	-37.48	-36.15	-31.81	-24.54	-15.19	-5.14	4.24	11.98	17.59	21.03	22.40	21.84	19.51	15.66	10.76	5.31	-7.73	14.75	9.85	5.75	2.61	0.43	-0.93	-1.63	-1.92	-2.00	-1.99	-1.99	-2.12	-2.57	-3.65	-5.69	-8.95	-35.18	13.94	8.26	1.94	-4.27	-9.39	-12.46	-12.80	-10.18	-5.12	1.21	7.14	10.94	11.26	7.57	0.47	-8.50	-2.44	-49.76	-55.29	-55.74	-50.02	-38.38	-22.48	-5.02	10.98	23.00	29.80	31.81	31.05	30.35	32.37	38.60	48.81	70.84	-12.06	-0.04	9.16	14.06	14.51	11.37	6.07	0.10	-5.33	-9.36	-11.34	-10.93	-8.23	-3.85	1.01	4.92	64.97	12.53	11.53	8.06	3.13	-1.94	-5.94	-8.14	-8.36	-6.99	-4.68	-2.19	-0.11	1.22	1.65	1.04	-0.83	6.23	54.44	49.03	41.60	32.38	21.98	11.16	0.71	-8.78	-16.88	-23.24	-27.64	-29.96	-30.25	-28.68	-25.39	-20.44	5.64	-13.03	-4.08	7.04	19.89	33.22	45.04	52.90	54.40	47.94	33.17	11.47	-14.26	-40.27	-62.92	-79.86	-90.72	-125.94	34.54	30.05	24.81	17.36	7.89	-2.20	-11.09	-17.47	-20.94	-21.88	-20.86	-18.20	-13.71	-6.90	2.78	15.76	50.55	-144.19	-123.87	-99.72	-72.05	-41.77	-10.58	19.26	45.13	64.61	75.91	78.33	72.36	59.71	42.97	25.11	8.78	19.07	27.23	18.15	12.59	9.48	7.60	6.00	4.16	2.02	-0.27	-2.57	-4.87	-7.45	-10.68	-14.90	-20.18	-26.31	-13.72	-0.04	-6.43	-12.21	-16.99	-20.45	-22.23	-21.88	-19.02	-13.54	-5.74	3.60	13.36	22.28	29.35	33.94	35.99	8.79	13.31	11.51	8.74	5.61	2.60	0.06	-1.80	-2.91	-3.42	-3.59	-3.72	-4.03	-4.56	-5.23	-5.93	-6.59	-11.70	13.16	12.17	10.68	8.52	5.63	2.04	-2.09	-6.44	-10.48	-13.47	-14.56	-13.10	-8.90	-2.34	5.58	13.65	1.38	7.60	12.81	15.88	16.88	16.04	13.60	9.83	5.06	-0.25	-5.49	-10.10	-13.66	-16.03	-17.28	-17.63	-17.30	-19.31	4.20	5.26	6.26	6.79	6.45	5.03	2.67	-0.16	-2.82	-4.82	-5.95	-6.33	-6.16	-5.44	-3.91	-1.03	0.09	-15.89	-9.77	-2.80	3.87	9.08	12.11	12.82	11.61	9.08	5.82	2.23	-1.40	-4.87	-8.03	-10.78	-13.15	-24.31	9.10	6.97	4.75	2.54	0.59	-0.82	-1.48	-1.42	-0.88	-0.25	0.10	-0.15	-1.16	-3.04	-5.77	-9.13	-4.87	-32.15	-35.20	-36.80	-36.04	-32.34	-25.64	-16.49	-5.84	5.13	15.30	23.83	30.25	34.46	36.71	37.47	37.35	33.58	-1.53	-1.83	-1.74	-1.21	-0.33	0.74	1.81	2.70	3.29	3.42	3.02	2.07	0.62	-1.28	-3.55	-6.15	18.18	6.37	3.28	0.04	-3.12	-5.90	-7.92	-8.76	-8.19	-6.23	-3.23	0.19	3.39	5.89	7.51	8.27	8.33	10.26	15.73	14.63	12.86	10.39	7.37	4.04	0.80	-2.01	-4.12	-5.51	-6.35	-6.96	-7.73	-8.98	-10.84	-13.31	-32.39	26.40	23.17	19.78	16.29	12.75	9.13	5.43	1.58	-2.44	-6.69	-11.08	-15.37	-19.02	-21.22	-21.03	-17.72	-1.41	-42.01	-32.42	-21.10	-9.60	0.67	8.75	14.29	17.45	18.57	17.93	15.71	12.06	7.32	2.09	-2.84	-6.82	-22.72	11.87	10.55	10.15	10.13	10.04	9.54	8.49	6.81	4.44	1.38	-2.31	-6.54	-11.16	-16.04	-21.11	-26.29	-16.62	-37.31	-41.35	-43.64	-43.23	-39.42	-32.06	-21.65	-9.25	3.84	16.33	27.27	36.10	42.54	46.50	48.02	47.24	18.09	9.83	5.94	1.78	-1.67	-3.69	-4.08	-3.15	-1.54	0.08	1.22	1.67	1.44	0.60	-0.77	-2.65	-5.07	-6.37	16.38	12.72	8.31	3.12	-2.71	-8.80	-14.39	-18.51	-20.18	-18.73	-14.05	-6.66	2.42	11.96	20.86	28.27	16.40	10.93	14.14	15.06	13.75	10.47	5.79	0.53	-4.35	-8.00	-10.00	-10.35	-9.55	-8.25	-7.11	-6.50	-6.48	-6.76	16.32	15.86	15.43	14.95	14.12	12.52	9.80	5.83	0.73	-5.11	-11.04	-16.21	-19.73	-20.77	-18.84	-13.90	15.25	-28.42	-19.33	-9.74	-0.76	6.76	12.28	15.55	16.54	15.41	12.45	8.10	2.92	-2.38	-7.03	-10.36	-12.00	1.52	1.72	2.86	4.43	5.70	6.26	6.14	5.67	5.22	4.87	4.34	3.08	0.54	-3.56	-9.12	-15.67	-22.42	1.04	-27.97	-32.36	-34.22	-32.91	-28.26	-20.58	-10.75	-0.01	10.28	18.98	25.30	28.87	29.75	28.27	24.98	20.59	6.67	10.20	5.77	2.32	0.22	-0.43	0.08	1.10	1.92	1.96	1.06	-0.50	-2.25	-3.71	-4.79	-5.79	-7.22	-14.34	11.44	7.90	3.26	-2.11	-7.64	-12.72	-16.64	-18.74	-18.44	-15.43	-9.74	-1.89	7.26	16.62	25.10	31.79	5.91	15.82	17.38	16.30	13.11	8.58	3.73	-0.55	-3.71	-5.62	-6.58	-7.13	-7.77	-8.80	-10.16	-11.63	-12.95	-20.86	12.70	11.57	9.98	7.50	3.98	-0.27	-4.57	-8.09	-10.19	-10.67	-9.73	-7.71	-4.87	-1.26	3.17	8.50	61.36	-67.32	-59.39	-49.05	-35.24	-17.50	3.32	24.60	42.56	53.49	55.18	47.86	33.88	16.63	-0.88	-16.92	-31.16	-53.50	70.80	58.76	47.53	37.33	28.32	20.23	12.33	3.80	-5.77	-16.05	-26.14	-35.00	-42.07	-47.49	-51.72	-54.82	86.98	-196.29	-193.05	-183.04	-164.34	-136.52	-100.77	-59.41	-15.11	29.65	72.58	111.33	143.31	166.01	177.75	178.38	169.50	134.29	106.81	88.26	69.43	52.02	36.63	23.04	10.69	-0.92	-12.11	-22.97	-33.50	-43.67	-53.50	-63.17	-73.07	-83.90	-79.39	116.99	101.23	81.84	58.93	33.58	7.77	-16.20	-36.19	-50.78	-59.28	-61.64	-58.26	-49.87	-37.58	-22.91	-7.64	21.76	-94.39	-81.67	-70.47	-59.81	-48.59	-36.03	-22.03	-6.96	8.66	24.46	40.09	54.89	67.52	75.89	77.62	70.87	-117.21	194.03	170.21	140.73	108.36	75.42	43.28	12.42	-16.95	-44.29	-68.50	-88.11	-101.91	-109.39	-110.80	-106.74	-97.68	-68.25	-132.67	-113.74	-90.32	-63.83	-36.61	-11.41	9.50	25.02	35.44	42.07	46.60	50.38	54.17	58.10	61.93	65.37	7.61	-7.57	-5.18	-3.14	-1.30	0.43	2.02	3.34	4.25	4.68	4.65	4.18	3.24	1.75	-0.48	-3.51	-7.29	-2.98	-0.91	-5.14	-8.84	-11.58	-12.96	-12.78	-11.03	-7.91	-3.83	0.68	5.12	9.09	12.38	14.81	16.27	16.64	0.15	12.75	10.99	8.53	5.74	2.98	0.45	-1.72	-3.45	-4.65	-5.26	-5.28	-4.87	-4.34	-3.96	-3.88	-4.10	-6.26	1.91	1.43	0.92	0.29	-0.49	-1.39	-2.36	-3.29	-4.02	-4.35	-4.01	-2.76	-0.49	2.63	6.21	9.77	9.43	-2.77	-0.11	2.10	3.96	5.39	6.08	5.74	4.28	1.96	-0.67	-2.98	-4.52	-5.16	-5.06	-4.48	-3.69	-0.32	6.84	7.45	7.75	7.58	6.85	5.60	3.99	2.26	0.57	-1.04	-2.67	-4.50	-6.66	-9.07	-11.47	-13.51	7.29	-22.38	-22.51	-21.32	-18.76	-14.94	-10.14	-4.76	0.68	5.70	9.92	13.13	15.36	16.75	17.52	17.87	17.95	17.09	8.10	8.00	7.92	7.82	7.55	6.91	5.70	3.81	1.34	-1.46	-4.19	-6.52	-8.39	-10.04	-11.94	-14.56	-4.11	3.13	-1.04	-5.28	-8.87	-11.25	-12.19	-11.73	-10.07	-7.41	-3.87	0.40	5.17	10.04	14.50	18.05	20.34	10.23	6.89	6.46	4.98	2.87	0.64	-1.23	-2.35	-2.57	-1.99	-1.01	-0.15	0.12	-0.51	-1.98	-4.01	-6.17	-2.14	4.29	2.89	2.04	1.60	1.26	0.60	-0.74	-2.93	-5.77	-8.51	-10.09	-9.35	-5.61	1.11	9.89	19.26	26.18	-0.71	5.50	9.14	10.66	10.92	10.80	10.71	10.40	9.17	6.26	1.40	-4.97	-11.86	-18.13	-22.99	-26.26	-63.60	61.26	58.91	55.09	48.44	37.91	23.26	5.55	-12.79	-28.47	-38.58	-41.81	-39.37	-34.38	-30.54	-30.37	-34.11	-76.22	-27.31	-32.23	-33.48	-29.29	-19.35	-4.76	12.01	27.49	37.88	40.23	33.82	20.74	5.39	-7.14	-13.08	-10.99	-8.56	-69.46	-55.20	-38.09	-20.05	-3.15	9.91	16.13	13.58	3.26	-10.07	-18.96	-16.31	1.14	30.68	64.40	92.21	-32.62	129.79	124.91	102.23	65.73	21.11	-25.21	-66.37	-95.36	-106.44	-97.22	-70.48	-34.27	0.16	21.98	24.17	5.23	-263.92	200.17	153.54	104.73	60.53	24.95	-1.31	-20.26	-35.10	-48.35	-60.53	-70.21	-75.07	-73.54	-65.84	-53.84	-39.88	-123.08	-166.20	-151.05	-134.05	-113.91	-90.32	-64.19	-37.21	-10.99	13.63	36.80	59.38	82.37	106.39	131.38	156.69	181.31	263.79	-182.48	-161.30	-141.68	-122.64	-102.87	-81.07	-56.24	-27.82	4.21	39.17	75.42	110.29	140.38	162.18	172.95	171.54	247.96	174.43	152.18	123.68	91.99	59.59	28.02	-1.94	-29.73	-54.53	-74.81	-88.53	-93.91	-90.47	-79.77	-65.22	-50.95	116.88	90.97	97.21	99.60	99.65	98.04	93.66	83.80	65.52	37.30	0.25	-41.99	-84.33	-122.06	-152.25	-174.57	-190.79	-137.98	51.20	39.35	27.55	16.25	6.68	-0.20	-4.31	-6.49	-7.99	-9.73	-12.08	-14.85	-17.72	-20.44	-22.80	-24.41	-26.66	-135.76	-133.01	-126.17	-114.21	-96.75	-74.13	-47.29	-17.61	13.28	43.59	71.52	95.53	114.54	128.21	136.88	141.36	93.88	22.13	21.12	18.49	14.79	10.59	6.49	3.02	0.43	-1.43	-3.08	-5.17	-8.16	-12.16	-16.98	-22.28	-27.78	16.00	44.49	38.62	32.14	24.64	15.80	5.63	-5.31	-15.89	-24.55	-29.80	-30.72	-27.28	-20.38	-11.48	-2.16	6.30	19.36	9.69	14.21	16.23	15.62	12.55	7.52	1.51	-4.34	-8.89	-11.48	-12.05	-11.12	-9.47	-7.81	-6.54	-5.69	0.06	14.23	14.76	15.15	15.16	14.44	12.68	9.67	5.37	-0.04	-6.12	-12.13	-17.08	-19.90	-19.77	-16.37	-10.03	28.08	-29.65	-20.33	-11.22	-3.15	3.41	8.27	11.36	12.70	12.35	10.52	7.62	4.25	1.09	-1.33	-2.72	-3.19	14.21	10.77	10.98	10.94	10.53	9.79	8.83	7.67	6.22	4.27	1.61	-1.86	-6.13	-11.01	-16.19	-21.16	-25.26	23.20	-36.68	-36.69	-33.78	-27.92	-19.65	-9.96	-0.06	8.88	16.03	20.96	23.57	24.03	22.63	19.83	16.22	12.53	3.20	29.41	27.24	25.87	24.68	22.74	19.27	13.97	7.16	-0.35	-7.70	-14.30	-20.00	-25.03	-29.74	-34.35	-38.90	-32.40	-7.74	-12.02	-16.13	-20.02	-23.37	-25.55	-25.69	-22.96	-16.95	-7.86	3.40	15.52	27.11	37.09	44.86	50.28	17.06	4.10	5.59	5.64	4.59	2.77	0.57	-1.61	-3.36	-4.40	-4.60	-4.02	-2.92	-1.65	-0.58	-0.02	-0.16	-5.37	21.43	19.96	18.02	15.74	13.22	10.49	7.55	4.37	0.85	-3.14	-7.70	-12.72	-17.75	-21.96	-24.34	-23.95	10.06	-35.80	-29.27	-20.72	-11.43	-2.72	4.46	9.63	12.78	14.14	14.10	13.03	11.20	8.89	6.34	3.82	1.62	5.36	4.68	3.79	3.65	4.09	4.76	5.26	5.23	4.53	3.17	1.33	-0.79	-3.05	-5.39	-7.83	-10.39	-13.11	-12.74	2.06	-1.18	-4.79	-8.72	-12.64	-15.91	-17.70	-17.28	-14.23	-8.71	-1.38	6.75	14.65	21.52	26.88	30.62	13.01	7.08	7.94	7.62	6.32	4.26	1.78	-0.71	-2.82	-4.28	-5.01	-5.15	-4.88	-4.38	-3.66	-2.66	-1.42	6.08	6.83	7.89	8.30	7.82	6.50	4.62	2.61	0.82	-0.58	-1.69	-2.77	-4.13	-5.95	-8.14	-10.32	-11.82	31.06	-36.79	-34.47	-29.41	-21.64	-11.81	-1.16	8.80	16.59	21.19	22.23	20.15	16.02	11.28	7.39	5.48	6.10	83.35	-43.04	-37.92	-31.66	-25.09	-18.88	-13.32	-8.34	-3.48	1.98	8.76	17.17	26.49	34.68	38.47	34.34	19.83	-86.68	164.96	132.58	97.76	65.90	40.74	23.20	11.57	2.86	-5.64	-15.66	-28.04	-43.70	-64.07	-90.93	-125.25	-166.23	-284.99	-12.62	-56.70	-95.77	-126.49	-146.88	-155.82	-152.29	-135.06	-103.15	-56.64	2.54	70.55	142.34	212.83	277.93	335.17	177.66	-79.09	-39.58	-8.56	14.45	30.03	38.96	42.31	41.33	37.12	30.34	21.11	9.20	-5.64	-23.32	-43.42	-65.24	-42.72	132.35	109.14	85.99	63.29	41.55	21.37	3.48	-11.51	-23.37	-32.50	-40.02	-47.57	-56.74	-68.29	-81.75	-95.35	-98.24	-51.12	-57.93	-59.22	-55.43	-48.11	-39.08	-29.63	-20.19	-10.47	0.13	12.31	26.86	44.75	67.01	94.22	125.85	123.13	-61.37	-27.77	1.95	25.25	40.95	49.22	50.99	47.35	39.22	27.36	12.61	-4.14	-22.13	-40.85	-59.92	-78.70	30.97	-3.86	-17.96	-27.03	-29.93	-26.73	-18.82	-8.39	2.29	11.47	18.15	22.05	23.19	21.74	17.87	11.85	4.16	-14.64	41.18	32.65	25.11	19.18	14.97	11.99	9.37	6.11	1.46	-4.82	-12.31	-20.11	-27.01	-31.83	-33.69	-32.21	-2.70	-39.53	-32.45	-23.87	-14.81	-6.16	1.46	7.65	12.20	14.98	15.95	15.24	13.26	10.73	8.60	7.80	8.91	31.51	-22.22	-17.73	-12.82	-8.46	-5.31	-3.41	-2.29	-1.16	0.66	3.42	6.84	10.26	12.86	14.03	13.56	11.84	69.34	-28.00	-28.78	-26.60	-19.98	-8.29	7.71	25.73	42.30	53.60	56.51	49.46	32.75	8.18	-21.71	-54.48	-88.42	-235.13	181.81	147.48	113.05	78.59	44.47	11.43	-19.57	-47.43	-70.96	-88.80	-99.21	-100.11	-89.17	-64.44	-25.10	27.89	155.88	-299.54	-230.11	-160.27	-94.96	-37.84	9.14	45.45	71.60	88.75	98.40	102.08	100.99	95.66	85.98	71.68	53.00	90.17	96.82	73.66	51.29	30.98	12.96	-3.26	-17.96	-30.52	-39.59	-43.78	-42.61	-36.92	-28.41	-18.55	-7.88	3.78	61.17	45.34	57.36	65.88	67.45	59.91	43.84	22.62	1.08	-16.65	-28.76	-36.13	-41.31	-46.94	-54.55	-64.17	-74.96	-197.46	172.53	161.29	149.38	135.75	119.09	98.21	72.21	40.79	4.44	-35.49	-76.70	-116.27	-151.07	-178.17	-195.23	-200.78	-164.82	-227.07	-209.49	-182.35	-147.94	-108.97	-68.12	-27.82	9.97	43.90	73.29	98.11	118.88	136.37	151.36	164.35	175.56	37.28	-17.16	-9.70	-4.19	-0.55	1.30	1.49	0.19	-2.13	-4.71	-6.45	-6.28	-3.50	1.88	9.09	16.86	23.85	59.78	6.58	9.68	10.84	10.59	9.45	7.74	5.58	2.96	-0.02	-3.12	-5.96	-8.24	-9.87	-11.00	-12.00	-13.21	21.90	23.01	20.91	18.48	15.88	13.21	10.43	7.48	4.27	0.76	-3.06	-7.23	-11.75	-16.59	-21.45	-25.74	-28.59	35.35	-42.50	-39.88	-34.04	-25.48	-15.23	-4.54	5.48	14.08	20.83	25.48	27.72	27.12	23.33	16.29	6.48	-5.10	-15.30	33.47	22.15	12.45	4.80	-0.79	-4.58	-6.92	-8.13	-8.53	-8.39	-7.92	-7.25	-6.46	-5.56	-4.62	-3.74	-4.69	-13.78	-13.78	-14.54	-15.93	-17.47	-18.30	-17.44	-14.17	-8.38	-0.68	7.82	15.84	22.42	27.14	29.99	31.23	14.18	12.20	10.79	8.25	4.82	1.03	-2.47	-5.06	-6.34	-6.31	-5.30	-3.82	-2.42	-1.47	-1.08	-1.21	-1.67	-4.15	15.99	15.14	14.00	12.41	10.24	7.43	4.02	0.17	-3.91	-7.90	-11.36	-13.77	-14.58	-13.37	-9.95	-4.52	16.06	-17.86	-10.37	-3.16	2.97	7.47	10.13	10.99	10.30	8.37	5.58	2.31	-1.03	-4.01	-6.25	-7.52	-7.86	0.31	8.20	8.69	8.85	8.33	7.04	5.13	2.94	0.85	-0.88	-2.17	-3.18	-4.21	-5.66	-7.88	-11.04	-15.06	-0.59	-18.63	-22.83	-25.88	-26.94	-25.43	-21.24	-14.73	-6.63	2.09	10.47	17.73	23.28	26.80	28.25	27.80	25.85	11.94	10.45	7.24	4.23	1.77	0.00	-1.07	-1.58	-1.67	-1.50	-1.27	-1.13	-1.26	-1.76	-2.70	-4.06	-5.74	-9.19	13.50	11.53	9.51	7.43	5.16	2.53	-0.58	-4.13	-7.75	-10.81	-12.50	-12.11	-9.32	-4.30	2.30	9.55	9.71	-2.43	3.38	7.60	10.02	10.70	9.82	7.68	4.62	1.06	-2.53	-5.71	-8.07	-9.39	-9.65	-9.06	-8.05	-5.11	7.76	8.32	8.28	7.69	6.75	5.67	4.60	3.49	2.23	0.62	-1.49	-4.17	-7.34	-10.83	-14.29	-17.22	1.14	-25.29	-25.41	-23.45	-19.36	-13.47	-6.54	0.54	6.92	11.98	15.41	17.16	17.28	15.89	13.22	9.60	5.57	-0.40	3.31	0.31	-1.53	-2.15	-1.77	-0.76	0.51	1.70	2.59	2.98	2.76	1.87	0.44	-1.39	-3.40	-5.51	-9.48	1.35	-1.10	-3.91	-7.03	-10.20	-12.91	-14.52	-14.40	-12.18	-7.86	-1.86	5.06	12.01	18.18	23.04	26.32	4.33	14.14	14.17	12.70	9.95	6.26	2.20	-1.59	-4.53	-6.30	-6.94	-6.82	-6.43	-6.19	-6.31	-6.78	-7.46	-15.80	11.93	11.17	10.32	9.28	7.93	6.18	3.95	1.18	-2.09	-5.63	-8.99	-11.48	-12.41	-11.23	-7.78	-2.32	8.80	-20.10	-12.71	-5.57	0.67	5.56	8.84	10.48	10.55	9.25	6.89	3.86	0.62	-2.31	-4.50	-5.68	-5.88	-1.71	5.13	5.86	6.42	6.57	6.31	5.78	5.12	4.33	3.24	1.68	-0.46	-3.15	-6.28	-9.75	-13.47	-17.26	-1.31	-21.16	-23.74	-24.64	-23.27	-19.49	-13.70	-6.69	0.54	7.16	12.66	16.79	19.51	20.76	20.52	18.84	15.99	3.32	7.81	4.21	1.18	-0.83	-1.71	-1.63	-0.97	-0.17	0.45	0.72	0.62	0.17	-0.59	-1.65	-2.98	-4.56	-10.31	7.27	5.21	2.77	-0.16	-3.61	-7.35	-10.80	-13.17	-13.71	-11.94	-7.88	-2.08	4.62	11.33	17.33	22.17	8.54	6.81	8.91	9.65	9.12	7.47	4.95	1.92	-1.19	-3.97	-6.07	-7.25	-7.50	-6.99	-6.07	-5.17	-4.65	-8.28	12.14	11.61	10.76	9.77	8.69	7.42	5.79	3.66	0.96	-2.23	-5.73	-9.23	-12.26	-14.22	-14.50	-12.63	8.25	-25.01	-18.95	-11.75	-4.41	2.15	7.25	10.61	12.19	12.18	10.81	8.35	5.19	1.76	-1.40	-3.83	-5.22	0.60	2.09	2.57	3.45	4.29	4.76	4.71	4.17	3.23	2.04	0.73	-0.68	-2.18	-3.87	-5.87	-8.29	-11.17	-0.94	-12.85	-16.06	-18.69	-20.10	-19.68	-17.14	-12.57	-6.45	0.47	7.36	13.46	18.21	21.20	22.28	21.49	19.15	7.33	7.53	3.86	0.52	-1.99	-3.42	-3.75	-3.16	-1.97	-0.59	0.61	1.34	1.49	1.11	0.38	-0.50	-1.45	-5.19	9.98	8.60	6.77	4.41	1.60	-1.46	-4.45	-7.03	-8.81	-9.47	-8.78	-6.68	-3.26	1.18	6.20	11.26	1.11	9.42	12.73	14.41	14.26	12.36	9.06	4.90	0.47	-3.68	-7.14	-9.68	-11.22	-11.85	-11.79	-11.37	-10.91	-15.38	5.85	5.87	5.69	5.45	5.22	4.95	4.48	3.59	2.11	-0.03	-2.71	-5.57	-8.10	-9.64	-9.58	-7.51	7.61	-26.35	-20.44	-13.44	-6.20	0.45	5.92	9.86	12.13	12.76	11.87	9.70	6.64	3.23	0.05	-2.39	-3.78	0.97	2.52	2.97	3.81	4.60	5.05	5.01	4.46	3.51	2.29	0.93	-0.54	-2.16	-4.06	-6.41	-9.28	-12.65	-0.18	-15.09	-18.44	-20.92	-21.81	-20.58	-17.03	-11.44	-4.52	2.77	9.49	14.98	18.90	21.19	21.92	21.24	19.30	6.01	10.19	6.75	3.33	0.49	-1.38	-2.16	-2.05	-1.39	-0.64	-0.14	-0.10	-0.53	-1.35	-2.42	-3.63	-4.93	-9.55	9.20	7.59	5.72	3.52	0.92	-2.12	-5.49	-8.80	-11.43	-12.57	-11.55	-8.08	-2.42	4.64	12.03	18.77	10.51	4.08	7.75	9.69	10.05	9.00	6.78	3.71	0.24	-3.12	-5.87	-7.65	-8.36	-8.10	-7.19	-6.01	-4.95	-5.20	11.41	11.50	10.99	9.97	8.59	6.94	5.10	3.12	0.97	-1.40	-4.04	-6.96	-10.07	-13.13	-15.71	-17.20	5.12	-27.33	-25.06	-20.70	-14.69	-7.84	-1.12	4.66	9.04	11.91	13.45	13.89	13.35	11.87	9.45	6.29	2.83	2.65	2.14	-0.11	-1.10	-0.86	0.25	1.68	2.92	3.63	3.71	3.19	2.14	0.66	-1.20	-3.36	-5.66	-7.96	-9.55	1.98	-0.34	-2.93	-5.90	-9.12	-12.09	-14.04	-14.20	-12.12	-7.89	-2.06	4.50	10.96	16.74	21.48	25.03	7.72	9.98	10.77	10.11	8.14	5.23	1.88	-1.40	-4.15	-6.08	-7.02	-7.01	-6.21	-4.98	-3.72	-2.84	-2.64	-9.20	13.74	12.59	11.07	9.40	7.76	6.14	4.52	2.77	0.73	-1.79	-4.87	-8.34	-11.70	-14.15	-14.82	-13.11	6.49	-24.60	-18.41	-11.18	-3.96	2.36	7.22	10.41	11.91	11.88	10.51	8.10	5.01	1.67	-1.46	-3.98	-5.56	0.88	-0.47	0.03	1.25	2.74	4.06	4.83	4.93	4.39	3.39	2.10	0.59	-1.13	-3.09	-5.32	-7.79	-10.48	-5.13	-7.34	-10.28	-13.10	-15.41	-16.69	-16.43	-14.27	-10.19	-4.54	1.97	8.51	14.24	18.56	21.20	22.14	21.60	4.33	10.40	7.81	4.70	1.49	-1.39	-3.49	-4.51	-4.39	-3.41	-2.06	-0.86	-0.19	-0.15	-0.60	-1.28	-2.00	-11.07	12.64	11.69	10.36	8.49	6.03	3.04	-0.33	-3.89	-7.30	-10.08	-11.68	-11.56	-9.42	-5.30	0.38	6.92	7.80	-5.41	0.39	4.88	7.75	8.95	8.65	7.12	4.74	1.87	-1.10	-3.80	-5.91	-7.21	-7.59	-7.14	-6.13	-2.79	5.64	6.64	7.20	7.26	6.86	6.13	5.18	4.04	2.64	0.89	-1.31	-4.03	-7.17	-10.50	-13.59	-15.89	5.01	-24.62	-23.74	-20.88	-16.24	-10.37	-4.00	2.11	7.35	11.32	13.84	14.88	14.51	12.93	10.47	7.61	4.87	11.40	-3.64	-4.79	-4.88	-4.04	-2.59	-0.95	0.54	1.67	2.42	2.88	3.17	3.32	3.19	2.59	1.41	-0.35	2.60	6.33	4.11	2.01	0.13	-1.51	-2.89	-3.95	-4.59	-4.67	-4.12	-2.94	-1.24	0.78	2.82	4.46	5.21	-13.33	20.56	18.40	14.74	10.00	4.85	0.01	-3.94	-6.67	-8.13	-8.52	-8.18	-7.49	-6.81	-6.36	-6.22	-6.30	-17.52	-2.22	-2.13	-1.69	-0.90	0.07	0.96	1.47	1.39	0.67	-0.55	-1.88	-2.78	-2.60	-0.79	2.87	8.19	12.23	-15.15	-8.50	-2.41	2.52	6.01	8.03	8.69	8.15	6.59	4.26	1.53	-1.15	-3.33	-4.73	-5.31	-5.23	2.15	5.27	5.74	6.01	6.00	5.66	5.00	4.04	2.81	1.36	-0.23	-1.93	-3.75	-5.73	-7.90	-10.14	-12.15	7.58	-18.83	-18.78	-17.05	-13.60	-8.81	-3.35	1.99	6.53	9.85	11.80	12.40	11.78	10.17	7.87	5.27	2.82	13.02	-4.53	-5.61	-5.83	-5.27	-4.13	-2.60	-0.88	0.86	2.42	3.57	4.18	4.22	3.86	3.40	3.14	3.27	47.12	-30.33	-29.61	-28.79	-27.73	-26.00	-22.98	-18.11	-11.15	-2.37	7.50	17.43	26.35	33.28	37.47	38.51	36.52	22.82	56.58	51.59	47.68	46.18	47.05	48.38	46.77	38.73	22.33	-1.47	-28.92	-54.79	-74.31	-84.57	-84.89	-76.35	-84.06	45.69	64.31	82.27	94.67	96.91	86.27	63.28	31.84	-2.24	-33.53	-58.83	-77.55	-90.68	-99.12	-102.74	-100.57	-81.32	-94.70	-80.28	-62.16	-43.10	-25.36	-10.04	2.92	14.10	23.78	31.70	37.21	40.00	40.57	40.29	40.97	44.11	31.08	-61.96	-52.67	-41.33	-29.11	-17.21	-6.70	1.62	7.32	10.68	12.70	14.92	18.80	24.95	32.67	40.13	45.14	16.82	60.33	56.72	49.38	39.74	29.21	18.73	8.70	-0.77	-9.60	-17.65	-24.83	-31.16	-36.82	-42.13	-47.33	-52.51	-61.26	20.52	15.86	11.90	8.85	6.76	5.43	4.44	3.22	1.32	-1.45	-4.91	-8.59	-12.01	-14.88	-17.20	-19.21	-39.67	-42.71	-44.56	-45.94	-46.10	-44.10	-39.11	-30.69	-19.08	-5.09	9.95	24.65	37.86	49.02	58.15	65.65	72.06	56.18	-18.14	-13.16	-8.96	-5.66	-3.22	-1.44	-0.01	1.35	2.77	4.18	5.41	6.32	6.91	7.35	7.86	8.51	55.69	9.60	9.75	9.02	7.23	4.59	1.69	-0.81	-2.48	-3.26	-3.47	-3.55	-3.85	-4.50	-5.44	-6.59	-7.91	33.16	13.07	11.21	9.05	6.73	4.46	2.49	1.01	0.04	-0.56	-1.10	-1.95	-3.44	-5.69	-8.58	-11.81	-14.98	14.55	0.84	-1.37	-2.95	-3.91	-4.34	-4.37	-4.18	-3.96	-3.81	-3.62	-3.03	-1.54	1.29	5.65	11.37	17.97	85.36	-45.85	-38.79	-31.67	-24.30	-16.55	-8.55	-0.70	6.51	12.79	18.09	22.45	25.64	26.92	25.18	19.43	9.35	-57.08	138.04	121.91	104.69	87.13	69.13	50.13	29.73	8.10	-13.95	-35.42	-55.53	-73.87	-90.25	-104.24	-114.86	-120.68	-34.78	-142.54	-134.94	-120.34	-100.01	-76.09	-50.83	-26.05	-2.69	19.14	39.84	59.67	78.46	95.50	109.95	121.31	129.67	23.39	77.41	81.31	82.91	81.02	73.92	60.26	39.95	14.55	-12.93	-38.93	-60.19	-74.67	-81.91	-83.14	-80.94	-78.70	-152.52	96.01	88.56	73.33	50.42	21.57	-10.04	-40.24	-64.65	-79.48	-82.45	-73.35	-53.99	-27.56	2.58	33.94	65.41	106.41	-161.92	-129.82	-97.33	-65.39	-35.61	-9.66	11.27	26.81	37.52	44.62	49.69	54.28	59.57	65.90	72.54	77.58	39.23	145.34	138.35	121.42	94.02	58.12	18.05	-20.54	-52.25	-73.43	-83.06	-82.59	-75.07	-63.92	-51.92	-40.86	-31.61	17.34	-2.58	2.36	5.21	6.32	6.39	6.34	7.01	8.70	10.88	12.22	11.05	6.13	-2.73	-14.32	-26.39	-36.59	-81.46	55.36	51.70	49.48	46.12	39.42	28.59	14.61	-0.22	-13.40	-23.15	-29.12	-32.39	-35.02	-39.58	-48.55	-63.80	-156.78	-10.51	-37.72	-66.12	-89.83	-102.62	-100.13	-81.71	-50.93	-14.38	20.77	49.44	70.09	84.51	96.32	108.88	123.94	77.13	-92.50	-73.80	-55.23	-37.64	-21.46	-6.93	5.48	15.22	22.00	26.11	28.52	30.52	33.21	37.10	42.04	47.39	153.87	-24.27	-19.94	-16.43	-13.35	-9.86	-4.90	2.37	12.01	22.86	32.48	37.70	35.61	24.48	4.18	-24.14	-58.87	33.17	22.15	-20.98	-65.10	-105.76	-136.34	-149.48	-139.77	-106.38	-54.33	6.64	65.02	111.22	139.99	151.05	147.66	134.43	44.76	103.91	82.18	59.52	37.34	17.05	0.04	-12.70	-20.97	-25.47	-27.61	-29.00	-30.93	-33.87	-37.37	-40.37	-41.77	-26.83	30.49	32.77	35.36	36.82	36.15	33.20	28.43	22.36	15.00	5.76	-6.10	-20.84	-37.75	-55.29	-71.53	-84.88	-103.48	-17.90	-23.79	-26.21	-25.56	-22.22	-16.78	-10.15	-3.50	2.17	6.42	9.63	12.81	17.12	23.43	32.01	42.48	-16.94	-32.52	-20.89	-10.14	-1.08	5.70	9.84	11.41	10.84	8.88	6.42	4.17	2.53	1.55	1.10	1.00	1.23	-19.34	4.20	5.08	6.04	6.69	6.63	5.67	3.95	1.90	0.02	-1.38	-2.36	-3.34	-4.79	-6.95	-9.56	-11.79	2.41	-34.29	-32.58	-28.03	-20.99	-12.46	-3.71	4.11	10.26	14.51	16.96	17.88	17.57	16.27	14.20	11.59	8.75	-16.30	24.65	22.12	20.00	18.31	16.93	15.58	13.91	11.49	7.98	3.17	-3.03	-10.56	-19.36	-29.31	-40.20	-51.62	-55.73	-23.42	-33.47	-41.26	-45.83	-46.60	-43.41	-36.40	-26.02	-12.86	2.20	18.07	33.53	47.53	59.52	69.67	78.77	107.01	-74.76	-64.34	-52.08	-37.89	-22.30	-6.24	9.07	22.33	32.40	38.46	40.23	37.98	32.43	24.53	15.17	5.07	41.29	60.37	49.90	39.56	29.49	19.83	10.63	1.92	-6.25	-13.75	-20.30	-25.51	-28.97	-30.52	-30.31	-28.93	-27.19	-0.41	15.77	15.99	14.99	13.01	10.47	7.79	5.20	2.76	0.33	-2.24	-5.10	-8.33	-11.92	-15.78	-19.65	-23.29	-62.62	35.82	33.41	31.74	30.72	30.07	29.32	27.69	24.20	17.82	7.97	-5.20	-20.69	-37.18	-53.48	-68.99	-83.26	-52.26	-105.77	-113.84	-114.99	-106.63	-87.80	-60.19	-27.85	4.14	31.51	52.23	66.65	76.77	84.84	92.49	100.30	108.18	60.05	3.46	10.44	16.63	21.83	25.73	27.83	27.64	24.74	19.04	10.81	0.58	-11.00	-23.49	-36.76	-51.01	-66.53	-81.82	58.57	41.09	24.03	8.82	-3.27	-11.54	-16.00	-17.32	-16.50	-14.60	-12.48	-10.68	-9.37	-8.38	-7.19	-5.12	-15.88	-67.49	-62.06	-54.77	-45.90	-35.87	-24.96	-13.32	-1.08	11.42	23.48	34.12	42.34	47.51	49.63	49.32	47.55	43.04	-13.61	-15.62	-17.17	-18.31	-19.18	-19.72	-19.50	-17.82	-14.00	-7.61	1.22	11.77	22.99	33.69	42.91	50.02	80.50	17.25	19.50	19.50	17.66	14.61	11.09	7.76	4.91	2.40	-0.31	-3.83	-8.56	-14.51	-21.45	-29.02	-36.98	-24.91	60.16	51.63	42.96	34.37	26.08	18.09	10.15	1.79	-7.30	-16.98	-26.50	-34.64	-40.13	-42.17	-40.77	-36.76	-58.83	2.45	7.58	11.49	13.59	13.76	12.19	9.28	5.47	1.24	-2.95	-6.74	-9.90	-12.38	-14.19	-15.30	-15.52	-34.48	-38.89	-36.45	-32.43	-26.95	-20.38	-13.14	-5.59	1.99	9.34	16.05	21.58	25.30	26.81	26.20	24.26	22.30	30.45	-43.09	-40.93	-35.71	-27.84	-18.34	-8.40	0.94	9.02	15.50	20.23	23.15	24.26	23.70	21.84	19.24	16.50	41.76	2.85	1.23	0.44	0.41	0.90	1.61	2.24	2.55	2.41	1.84	0.93	-0.21	-1.53	-3.08	-5.02	-7.51	43.38	-12.23	-15.83	-19.51	-22.58	-24.24	-23.75	-20.73	-15.27	-7.87	0.66	9.48	17.91	25.44	31.77	36.70	40.09	39.38	45.80	45.70	43.73	39.95	34.50	27.63	19.58	10.59	0.86	-9.39	-19.85	-30.17	-39.92	-48.78	-56.63	-63.64	-65.27	34.47	27.94	21.03	13.48	5.19	-3.67	-12.59	-20.67	-26.68	-29.33	-27.63	-21.29	-10.84	2.47	16.98	31.11	-0.44	-21.14	-10.75	-2.79	2.77	6.05	7.25	6.71	4.97	2.74	0.75	-0.42	-0.60	0.00	0.91	1.65	1.89	-5.25	6.43	5.84	5.14	4.47	3.77	2.87	1.57	-0.25	-2.50	-4.87	-6.82	-7.75	-7.14	-4.74	-0.64	4.68	10.38	-5.06	0.69	5.76	9.78	12.52	13.83	13.53	11.53	7.90	3.03	-2.45	-7.79	-12.31	-15.55	-17.41	-18.00	-5.96	-1.25	-0.11	1.49	3.29	4.99	6.31	6.96	6.78	5.69	3.68	0.83	-2.62	-6.17	-9.12	-10.63	-10.06	13.41	-26.54	-21.64	-15.42	-8.78	-2.45	3.06	7.45	10.56	12.22	12.33	11.00	8.58	5.66	2.96	1.01	0.02	6.88	6.39	6.68	7.01	7.11	6.90	6.45	5.84	5.09	4.08	2.60	0.40	-2.71	-6.74	-11.49	-16.50	-21.06	6.61	-24.06	-25.29	-24.07	-20.43	-14.88	-8.26	-1.42	4.92	10.27	14.33	16.89	17.84	17.22	15.26	12.44	9.31	3.23	9.79	7.43	5.70	4.50	3.64	2.93	2.24	1.46	0.51	-0.60	-1.85	-3.21	-4.75	-6.62	-9.05	-12.16	-0.87	-11.73	-15.46	-18.45	-19.86	-19.04	-15.87	-10.79	-4.61	1.73	7.49	12.28	15.97	18.57	20.05	20.32	19.38	6.08	10.44	7.79	5.00	2.55	0.73	-0.45	-1.10	-1.43	-1.60	-1.74	-1.91	-2.18	-2.63	-3.31	-4.35	-5.89	-6.76	4.75	1.77	-1.93	-6.04	-10.00	-13.06	-14.53	-13.92	-11.18	-6.64	-1.01	4.94	10.54	15.33	19.12	21.81	9.28	7.32	7.68	6.85	5.04	2.71	0.44	-1.27	-2.18	-2.39	-2.25	-2.16	-2.39	-2.99	-3.84	-4.78	-5.72	-11.17	13.81	12.75	11.33	9.31	6.49	2.82	-1.52	-6.04	-10.07	-12.82	-13.65	-12.23	-8.65	-3.41	2.76	9.11	10.56	-6.68	-1.54	2.59	5.51	7.07	7.17	5.93	3.73	1.17	-1.14	-2.79	-3.71	-4.08	-4.22	-4.38	-4.61	-7.19	12.85	12.54	12.15	11.51	10.45	8.87	6.76	4.17	1.15	-2.26	-6.00	-9.87	-13.42	-16.02	-17.00	-15.87	8.01	-27.74	-22.57	-16.29	-9.72	-3.57	1.71	5.90	8.95	10.86	11.65	11.32	10.01	7.99	5.71	3.65	2.20	4.84	4.73	4.84	5.36	5.88	6.00	5.52	4.43	2.89	1.12	-0.64	-2.32	-3.90	-5.48	-7.22	-9.30	-11.89	-6.40	-3.81	-7.45	-11.20	-14.49	-16.62	-16.99	-15.27	-11.54	-6.27	-0.13	6.16	11.98	16.93	20.75	23.32	24.61	12.51	5.81	4.99	3.60	2.05	0.68	-0.31	-0.88	-1.14	-1.23	-1.31	-1.42	-1.59	-1.79	-2.04	-2.41	-3.02	-6.23	14.74	13.33	11.53	9.48	7.36	5.32	3.43	1.63	-0.16	-2.08	-4.27	-6.77	-9.55	-12.40	-14.93	-16.60	2.16	-25.26	-23.76	-20.46	-15.69	-10.07	-4.32	0.95	5.38	8.84	11.33	12.88	13.55	13.38	12.49	11.15	9.69	9.87	0.76	0.08	0.04	0.55	1.36	2.17	2.70	2.82	2.52	1.86	0.96	-0.14	-1.42	-2.93	-4.68	-6.59	-11.39	12.74	10.95	9.42	8.10	6.83	5.38	3.57	1.35	-1.19	-3.85	-6.41	-8.58	-10.11	-10.65	-9.91	-7.71	5.13	-20.61	-15.90	-10.63	-5.44	-0.84	2.83	5.46	7.09	7.80	7.70	6.92	5.65	4.16	2.76	1.75	1.34	4.55	2.13	2.77	3.52	4.06	4.14	3.71	2.89	1.88	0.88	-0.02	-0.89	-1.90	-3.19	-4.80	-6.63	-8.47	-15.53	9.94	8.55	7.38	6.26	5.01	3.48	1.62	-0.53	-2.87	-5.19	-7.19	-8.42	-8.43	-6.86	-3.66	0.89	3.24	-12.57	-7.20	-2.39	1.46	4.12	5.57	5.84	5.11	3.63	1.77	0.00	-1.29	-1.84	-1.63	-0.83	0.31	2.14	2.59	3.58	4.26	4.60	4.63	4.39	3.89	3.09	1.92	0.39	-1.42	-3.33	-5.14	-6.68	-7.91	-8.94	-11.88	4.08	2.88	1.35	-0.52	-2.64	-4.80	-6.71	-8.04	-8.47	-7.72	-5.64	-2.26	2.19	7.24	12.30	16.75	4.78	3.40	5.29	5.76	5.03	3.50	1.59	-0.31	-1.92	-3.04	-3.62	-3.70	-3.42	-2.93	-2.39	-1.85	-1.34	-2.96	6.88	7.26	7.40	7.12	6.25	4.75	2.76	0.53	-1.62	-3.43	-4.75	-5.57	-6.04	-6.40	-6.97	-8.09	-8.75	-4.15	-6.67	-9.50	-12.04	-13.54	-13.39	-11.36	-7.64	-2.83	2.30	7.05	10.92	13.69	15.36	16.03	15.84	1.48	4.73	3.36	1.72	0.11	-1.21	-2.06	-2.33	-2.09	-1.51	-0.83	-0.25	0.13	0.29	0.26	0.06	-0.35	-11.58	11.98	10.87	9.35	7.50	5.47	3.41	1.49	-0.19	-1.60	-2.80	-3.94	-5.22	-6.77	-8.51	-10.10	-10.98	-0.29	-21.90	-19.97	-16.56	-12.03	-6.98	-1.98	2.52	6.24	8.99	10.65	11.18	10.70	9.46	7.87	6.39	5.34	3.61	0.96	0.96	1.19	1.42	1.50	1.44	1.31	1.21	1.13	0.97	0.57	-0.17	-1.23	-2.50	-3.77	-4.94	-7.01	4.67	3.81	3.06	2.38	1.70	0.94	-0.04	-1.36	-2.98	-4.59	-5.68	-5.68	-4.22	-1.32	2.59	6.79	6.96	-3.39	-0.51	1.31	2.17	2.31	1.98	1.34	0.54	-0.29	-0.98	-1.39	-1.43	-1.15	-0.67	-0.14	0.32	1.27	6.34	6.51	6.52	6.30	5.80	4.96	3.80	2.41	0.91	-0.57	-2.02	-3.55	-5.37	-7.67	-10.54	-13.77	-5.02	-10.59	-12.93	-13.90	-13.17	-10.82	-7.29	-3.23	0.73	4.18	6.94	9.00	10.37	11.04	10.96	10.13	8.63	-3.20	4.87	2.76	0.78	-0.86	-2.01	-2.67	-2.88	-2.73	-2.30	-1.66	-0.84	0.13	1.12	1.95	2.33	2.01	-10.95	8.64	6.77	4.34	1.57	-1.35	-4.27	-6.97	-9.08	-10.17	-9.82	-7.81	-4.25	0.44	5.67	10.86	15.47	3.63	4.52	6.88	7.79	7.24	5.45	2.86	0.00	-2.60	-4.56	-5.66	-5.90	-5.38	-4.36	-3.12	-1.99	-1.20	-4.26	7.04	6.97	6.66	6.23	5.73	5.06	4.04	2.52	0.45	-2.09	-4.81	-7.29	-8.96	-9.27	-7.81	-4.46	17.72	-21.50	-15.60	-9.48	-3.83	0.88	4.43	6.75	7.86	7.86	6.95	5.49	3.89	2.51	1.56	1.11	1.12	32.55	-13.26	-12.32	-10.87	-8.94	-6.67	-4.31	-2.06	-0.04	1.77	3.44	5.02	6.53	7.99	9.44	11.07	13.18	84.74	-36.04	-31.85	-26.18	-19.03	-10.61	-1.33	8.26	17.43	25.21	30.43	31.79	28.25	19.37	5.65	-11.47	-29.90	-9.59	46.81	31.66	19.81	11.25	5.43	1.60	-0.88	-2.43	-3.43	-4.35	-5.86	-8.63	-13.04	-19.00	-25.90	-33.09	-72.41	22.61	15.42	7.75	-0.49	-8.72	-15.66	-19.89	-20.59	-17.93	-12.96	-6.92	-0.66	5.56	11.79	17.82	22.90	-81.06	34.51	34.36	30.80	24.33	16.03	7.06	-1.66	-9.45	-15.73	-19.90	-21.48	-20.54	-17.82	-14.74	-12.78	-12.95	-76.64	-19.78	-23.69	-27.96	-31.53	-33.71	-34.15	-32.49	-28.23	-20.80	-9.89	4.18	20.40	37.29	53.34	67.52	79.42	31.03	-18.48	-10.47	-3.94	1.14	4.58	6.22	6.08	4.46	1.95	-0.69	-2.61	-3.12	-1.86	1.13	5.37	10.18	48.17	-2.18	2.25	6.28	9.98	13.26	15.72	16.75	15.75	12.43	6.94	-0.08	-7.76	-15.10	-21.27	-25.54	-27.45	32.67	-11.37	-8.50	-3.95	1.38	6.45	10.33	12.37	12.37	10.53	7.35	3.43	-0.72	-4.75	-8.48	-11.82	-14.64	4.62	11.18	9.61	8.63	8.01	7.44	6.54	5.08	3.01	0.48	-2.22	-4.79	-7.03	-8.90	-10.55	-12.23	-14.24	-4.55	-7.59	-10.64	-13.94	-16.91	-18.82	-18.93	-16.76	-12.29	-5.96	1.43	8.91	15.60	20.83	24.21	25.61	25.20	6.94	11.86	9.10	6.02	3.12	0.74	-0.98	-2.05	-2.58	-2.73	-2.64	-2.50	-2.48	-2.70	-3.22	-4.02	-5.02	-13.60	14.35	12.97	11.30	9.30	6.98	4.51	2.14	0.12	-1.44	-2.66	-3.86	-5.47	-7.76	-10.67	-13.71	-16.03	1.81	-32.13	-30.47	-26.24	-19.78	-11.94	-3.77	3.70	9.74	13.99	16.43	17.25	16.74	15.19	12.93	10.36	7.96	10.21	-2.19	-2.98	-2.73	-1.65	-0.16	1.32	2.47	3.19	3.44	3.26	2.67	1.67	0.31	-1.27	-2.90	-4.46	-9.71	13.98	12.51	10.90	9.04	6.93	4.68	2.45	0.42	-1.34	-2.87	-4.30	-5.88	-7.80	-10.18	-12.92	-15.63	0.96	-28.37	-29.09	-27.86	-24.36	-18.72	-11.51	-3.57	4.15	10.83	15.95	19.29	20.89	20.93	19.65	17.35	14.45	8.67	3.73	1.20	-0.38	-0.82	-0.28	0.76	1.69	2.11	1.88	1.19	0.32	-0.50	-1.22	-2.01	-3.09	-4.61	-14.57	16.64	14.27	11.70	9.11	6.67	4.43	2.39	0.47	-1.49	-3.62	-5.99	-8.51	-10.82	-12.35	-12.42	-10.42	16.17	-36.79	-30.20	-21.97	-13.03	-4.40	3.04	8.73	12.46	14.33	14.62	13.67	11.91	9.74	7.56	5.75	4.61	18.68	1.77	2.16	3.00	3.91	4.56	4.73	4.39	3.64	2.63	1.42	0.00	-1.73	-3.83	-6.26	-8.89	-11.52	-10.12	14.84	12.69	10.79	9.01	7.15	5.11	2.88	0.55	-1.70	-3.70	-5.38	-6.79	-8.15	-9.83	-12.15	-15.29	-8.29	-20.91	-24.74	-27.71	-28.77	-27.13	-22.54	-15.37	-6.52	2.85	11.63	19.00	24.52	28.04	29.67	29.63	28.28	11.93	5.84	3.28	0.86	-1.02	-2.19	-2.65	-2.52	-1.98	-1.16	-0.24	0.61	1.16	1.22	0.69	-0.32	-1.58	-4.26	13.33	12.13	10.94	9.57	7.82	5.68	3.31	0.94	-1.21	-3.06	-4.70	-6.32	-8.17	-10.45	-13.26	-16.47	-4.03	-19.98	-22.75	-24.30	-23.93	-21.27	-16.32	-9.60	-1.95	5.62	12.20	17.19	20.39	21.89	22.01	21.13	19.60	9.89	3.76	1.70	-0.26	-1.83	-2.80	-3.06	-2.62	-1.65	-0.42	0.78	1.68	2.10	1.99	1.35	0.29	-1.05	-6.96	14.26	12.57	10.70	8.64	6.36	3.92	1.49	-0.73	-2.57	-4.00	-5.12	-6.11	-7.22	-8.66	-10.54	-12.92	-9.25	-13.45	-16.51	-19.43	-21.59	-22.23	-20.69	-16.64	-10.28	-2.35	6.02	13.71	19.88	24.11	26.40	26.95	26.05	8.15	6.62	3.84	0.84	-1.80	-3.53	-4.05	-3.46	-2.16	-0.73	0.36	0.90	0.98	0.84	0.68	0.50	0.11	-10.29	17.65	15.99	13.54	10.49	7.20	4.06	1.37	-0.79	-2.50	-3.96	-5.42	-7.12	-9.17	-11.54	-13.95	-15.90	2.23	-29.24	-28.31	-25.25	-20.09	-13.30	-5.69	1.80	8.35	13.37	16.55	17.89	17.55	15.87	13.25	10.15	7.03	5.15	1.40	-0.59	-1.70	-1.92	-1.43	-0.52	0.51	1.37	1.91	2.09	1.95	1.56	0.89	-0.15	-1.65	-3.68	-17.31	16.32	13.66	11.06	8.74	6.79	5.15	3.63	2.00	0.06	-2.33	-5.18	-8.28	-11.25	-13.44	-14.17	-12.80	6.62	-32.98	-27.00	-19.37	-11.02	-2.92	4.08	9.42	12.90	14.52	14.49	13.08	10.66	7.65	4.56	1.90	0.09	5.63	0.28	0.40	1.08	1.90	2.50	2.74	2.67	2.44	2.19	1.92	1.44	0.50	-1.10	-3.39	-6.24	-9.31	-17.87	11.27	8.80	6.83	5.24	3.71	1.89	-0.42	-3.23	-6.24	-8.91	-10.57	-10.52	-8.26	-3.65	3.01	10.99	13.34	-11.94	-4.37	1.68	5.76	7.87	8.25	7.27	5.38	2.97	0.42	-1.91	-3.70	-4.70	-4.90	-4.44	-3.64	4.49	6.03	6.64	6.96	7.03	6.91	6.57	5.92	4.75	2.91	0.40	-2.59	-5.72	-8.59	-10.91	-12.59	-13.76	-12.11	1.85	0.68	-0.97	-3.23	-6.02	-9.04	-11.75	-13.47	-13.49	-11.30	-6.76	-0.23	7.51	15.43	22.57	28.22	11.28	8.64	10.53	10.64	9.23	6.66	3.39	-0.05	-3.13	-5.44	-6.78	-7.19	-6.89	-6.16	-5.28	-4.46	-3.78	-3.47	11.41	11.56	11.27	10.39	8.79	6.49	3.67	0.69	-2.05	-4.27	-5.93	-7.21	-8.46	-10.01	-12.01	-14.40	-1.18	-19.15	-21.21	-22.37	-22.16	-20.27	-16.57	-11.26	-4.78	2.21	9.00	14.95	19.59	22.62	23.95	23.61	21.87	8.87	9.05	5.79	2.60	-0.05	-1.85	-2.74	-2.84	-2.39	-1.67	-0.88	-0.21	0.20	0.21	-0.33	-1.51	-3.37	-14.51	17.59	14.86	12.16	9.80	7.90	6.36	4.87	3.03	0.55	-2.70	-6.54	-10.50	-13.87	-15.77	-15.42	-12.33	8.66	-29.72	-21.89	-13.09	-4.52	2.80	8.27	11.69	13.18	12.95	11.31	8.62	5.31	1.97	-0.82	-2.65	-3.35	4.19	1.36	2.17	3.14	3.95	4.46	4.68	4.68	4.46	3.92	2.87	1.13	-1.31	-4.31	-7.51	-10.55	-13.15	-16.98	5.97	4.33	2.80	1.00	-1.35	-4.36	-7.80	-11.09	-13.36	-13.66	-11.30	-6.15	1.26	9.85	18.33	25.57	12.82	1.11	4.41	5.90	5.93	4.88	3.10	0.94	-1.22	-3.01	-4.17	-4.58	-4.32	-3.60	-2.65	-1.72	-1.02	-2.46	14.59	14.41	13.69	12.38	10.49	8.02	5.07	1.78	-1.63	-4.84	-7.59	-9.75	-11.43	-12.97	-14.85	-17.41	-3.29	-19.77	-23.08	-25.57	-26.17	-24.07	-19.10	-11.79	-3.21	5.36	12.81	18.47	22.18	24.06	24.42	23.58	21.87	10.24	6.13	3.81	1.81	0.37	-0.41	-0.70	-0.75	-0.78	-0.86	-0.93	-0.88	-0.69	-0.52	-0.70	-1.56	-3.27	-10.76	15.27	12.42	9.65	7.38	5.79	4.78	4.00	2.97	1.28	-1.30	-4.66	-8.36	-11.64	-13.58	-13.39	-10.67	9.93	-26.21	-19.28	-11.57	-4.12	2.20	6.94	9.95	11.31	11.19	9.82	7.47	4.59	1.76	-0.47	-1.72	-1.90	9.45	-0.73	0.44	1.74	2.93	3.94	4.71	5.16	5.16	4.55	3.26	1.32	-1.11	-3.85	-6.65	-9.31	-11.63	-12.56	8.50	7.07	5.95	4.94	3.78	2.24	0.21	-2.29	-5.02	-7.51	-9.14	-9.24	-7.37	-3.40	2.31	9.02	12.47	-9.17	-3.06	1.78	5.09	6.88	7.31	6.59	4.94	2.68	0.14	-2.24	-4.06	-5.03	-5.01	-4.14	-2.73	7.55	3.70	4.93	5.63	5.78	5.49	4.94	4.24	3.37	2.20	0.60	-1.46	-3.81	-6.19	-8.30	-9.95	-11.15	-10.56	6.00	4.99	3.59	1.63	-0.88	-3.75	-6.61	-9.01	-10.42	-10.37	-8.55	-4.90	0.30	6.45	12.83	18.67	11.52	1.31	4.57	6.32	6.65	5.78	3.99	1.62	-0.91	-3.17	-4.76	-5.43	-5.21	-4.31	-3.13	-2.02	-1.28	2.76	7.74	7.55	7.01	6.22	5.26	4.12	2.81	1.32	-0.32	-2.02	-3.68	-5.16	-6.42	-7.41	-8.19	-8.86	-11.67	4.83	3.82	2.33	0.20	-2.61	-5.86	-9.05	-11.49	-12.40	-11.23	-7.84	-2.59	3.79	10.39	16.40	21.26	9.73	3.32	5.32	5.91	5.20	3.43	1.01	-1.52	-3.61	-4.87	-5.15	-4.60	-3.49	-2.12	-0.73	0.51	1.46	0.55	11.14	11.09	10.47	9.37	7.96	6.36	4.57	2.51	0.11	-2.59	-5.38	-7.96	-10.06	-11.56	-12.59	-13.45	-11.80	-2.13	-3.64	-5.75	-8.33	-11.04	-13.33	-14.54	-14.10	-11.58	-6.96	-0.62	6.62	13.79	19.96	24.49	27.20	9.98	6.43	6.09	4.81	2.93	0.77	-1.33	-3.02	-4.00	-4.13	-3.48	-2.36	-1.18	-0.34	-0.05	-0.28	-0.88	-2.71	11.05	10.26	9.41	8.39	7.00	5.12	2.81	0.27	-2.19	-4.28	-5.85	-6.93	-7.68	-8.33	-9.08	-10.02	-8.65	-5.29	-6.81	-8.62	-10.64	-12.57	-13.89	-14.00	-12.33	-8.70	-3.33	3.10	9.68	15.56	20.12	23.11	24.56	7.50	8.52	7.57	5.81	3.53	1.08	-1.20	-2.95	-3.96	-4.20	-3.84	-3.14	-2.37	-1.73	-1.28	-1.00	-0.87	-2.90	9.51	9.29	8.76	7.80	6.34	4.43	2.23	-0.01	-2.00	-3.58	-4.72	-5.56	-6.35	-7.33	-8.62	-10.27	-5.22	-9.92	-12.05	-14.10	-15.68	-16.25	-15.32	-12.56	-8.03	-2.22	4.06	9.94	14.71	18.00	19.74	20.14	19.52	7.45	5.53	3.80	1.90	0.06	-1.52	-2.68	-3.28	-3.24	-2.61	-1.55	-0.34	0.69	1.28	1.30	0.79	-0.08	-5.00	11.32	10.20	8.99	7.59	5.91	3.97	1.90	-0.13	-1.94	-3.44	-4.67	-5.69	-6.65	-7.70	-9.01	-10.65	-2.04	-15.49	-17.33	-18.61	-18.71	-17.12	-13.66	-8.55	-2.41	3.91	9.57	13.97	16.81	18.08	17.97	16.78	14.80	4.44	5.84	3.18	0.65	-1.41	-2.76	-3.25	-2.91	-1.99	-0.79	0.31	1.08	1.39	1.23	0.70	-0.13	-1.21	-10.23	12.10	10.43	8.41	6.11	3.68	1.42	-0.38	-1.54	-2.05	-2.20	-2.44	-3.20	-4.70	-6.77	-8.82	-10.03	3.47	-23.33	-20.89	-16.53	-10.81	-4.59	1.24	6.04	9.41	11.32	11.86	11.23	9.68	7.48	4.95	2.50	0.50	2.84	-0.12	-0.52	-0.17	0.68	1.65	2.43	2.84	2.85	2.53	1.98	1.28	0.33	-0.97	-2.70	-4.86	-7.24	-14.88	8.19	6.27	4.90	4.05	3.47	2.86	1.89	0.41	-1.56	-3.78	-5.82	-7.16	-7.28	-5.80	-2.63	1.98	6.12	-13.49	-7.72	-2.38	2.04	5.24	7.11	7.69	7.11	5.59	3.46	1.09	-1.11	-2.82	-3.84	-4.14	-3.84	-0.05	3.05	3.94	4.78	5.40	5.66	5.54	5.01	4.06	2.69	0.90	-1.28	-3.74	-6.23	-8.45	-10.11	-11.14	-13.26	1.55	1.15	0.46	-0.87	-2.93	-5.51	-8.16	-10.23	-11.03	-10.05	-7.01	-2.09	4.15	10.88	17.21	22.42	7.86	4.95	6.95	7.44	6.68	4.95	2.58	-0.08	-2.62	-4.62	-5.76	-5.92	-5.21	-3.98	-2.67	-1.64	-1.02	-1.39	8.49	8.59	8.63	8.57	8.15	7.12	5.29	2.75	-0.14	-2.95	-5.31	-7.09	-8.44	-9.65	-11.08	-12.94	-3.49	-13.18	-15.78	-18.20	-19.83	-20.02	-18.32	-14.56	-8.99	-2.19	5.06	11.95	17.79	22.10	24.62	25.28	24.28	7.22	11.26	8.17	4.83	1.75	-0.77	-2.54	-3.53	-3.80	-3.52	-2.93	-2.27	-1.75	-1.42	-1.23	-1.11	-1.12	-9.14	14.93	14.02	12.34	9.91	7.06	4.21	1.76	-0.16	-1.65	-2.97	-4.43	-6.23	-8.44	-10.98	-13.58	-15.80	2.03	-28.21	-27.83	-25.34	-20.66	-14.21	-6.84	0.45	6.77	11.63	14.90	16.73	17.31	16.77	15.25	12.97	10.33	8.67	1.22	-0.55	-1.28	-0.95	0.16	1.60	2.88	3.64	3.73	3.19	2.14	0.72	-0.99	-2.95	-5.12	-7.46	-14.95	13.77	11.48	9.41	7.64	6.14	4.82	3.50	2.00	0.14	-2.18	-4.91	-7.79	-10.36	-11.95	-11.91	-9.78	6.36	-26.79	-20.66	-13.42	-5.98	0.80	6.24	9.96	11.86	12.09	10.92	8.72	5.94	3.04	0.52	-1.24	-1.98	8.42	-3.76	-2.64	-1.05	0.67	2.25	3.53	4.44	4.92	4.88	4.19	2.81	0.82	-1.60	-4.15	-6.58	-8.75	-8.35	6.11	4.40	2.77	1.11	-0.67	-2.68	-4.91	-7.17	-9.04	-9.92	-9.15	-6.30	-1.37	5.15	12.36	19.27	13.73	2.95	7.10	9.53	10.33	9.72	7.90	5.13	1.75	-1.78	-4.95	-7.29	-8.58	-8.86	-8.42	-7.65	-6.93	-2.20	9.44	9.53	9.25	8.62	7.61	6.14	4.21	1.92	-0.51	-2.81	-4.81	-6.48	-7.97	-9.50	-11.28	-13.41	-6.51	-11.54	-14.19	-16.78	-18.91	-20.03	-19.48	-16.76	-11.72	-4.76	3.25	11.19	18.00	23.02	25.94	26.85	26.00	6.59	10.65	7.41	3.69	0.08	-2.89	-4.86	-5.69	-5.48	-4.52	-3.09	-1.48	0.05	1.28	1.95	1.89	0.98	-11.30	17.20	14.92	12.36	9.76	7.36	5.20	3.23	1.29	-0.80	-3.21	-5.94	-8.83	-11.54	-13.55	-14.27	-13.11	4.78	-25.87	-20.45	-13.47	-5.84	1.36	7.17	11.00	12.72	12.57	11.02	8.57	5.65	2.62	-0.21	-2.58	-4.25	-1.77	1.45	1.42	2.05	3.09	4.20	5.03	5.29	4.84	3.74	2.13	0.22	-1.86	-4.08	-6.48	-9.12	-11.97	-9.77	-6.96	-9.99	-12.95	-15.67	-17.80	-18.85	-18.17	-15.26	-9.96	-2.68	5.70	14.02	21.22	26.55	29.76	30.98	12.95	7.88	6.33	4.05	1.42	-1.15	-3.29	-4.70	-5.18	-4.76	-3.63	-2.10	-0.53	0.77	1.58	1.82	1.52	-1.90	15.60	14.47	13.02	11.28	9.23	6.85	4.18	1.30	-1.66	-4.64	-7.54	-10.22	-12.41	-13.72	-13.70	-11.97	12.45	-22.80	-17.70	-11.59	-5.19	0.73	5.57	8.93	10.68	10.89	9.81	7.80	5.26	2.60	0.16	-1.85	-3.24	6.61	1.92	1.95	2.60	3.61	4.64	5.30	5.30	4.52	3.06	1.17	-0.85	-2.80	-4.65	-6.49	-8.47	-10.74	-4.85	-1.86	-4.69	-7.62	-10.44	-12.82	-14.32	-14.43	-12.73	-9.06	-3.69	2.73	9.26	15.00	19.34	22.06	23.29	9.82	8.62	7.71	6.14	4.12	1.92	-0.15	-1.76	-2.70	-2.93	-2.64	-2.15	-1.81	-1.94	-2.68	-3.99	-5.70	-10.01	12.25	10.42	8.79	7.43	6.27	5.22	4.08	2.63	0.63	-2.07	-5.30	-8.62	-11.25	-12.29	-11.02	-7.15	11.52	-22.54	-14.99	-7.18	-0.22	5.14	8.61	10.32	10.58	9.72	7.95	5.45	2.43	-0.73	-3.47	-5.27	-5.79	6.77	-0.35	1.13	2.83	4.21	4.96	4.97	4.36	3.29	1.95	0.50	-0.93	-2.27	-3.54	-4.91	-6.75	-9.48	-12.23	5.54	0.29	-5.77	-11.69	-16.24	-18.33	-17.35	-13.48	-7.57	-0.83	5.58	10.86	14.69	17.14	18.41	18.79	6.93	-0.65	-1.31	-2.07	-2.67	-2.88	-2.60	-1.82	-0.67	0.69	2.01	3.02	3.51	3.30	2.37	0.83	-1.13	-11.54	15.15	12.87	10.52	8.06	5.40	2.47	-0.71	-4.03	-7.21	-9.86	-11.43	-11.45	-9.59	-5.80	-0.40	6.01	8.57	-7.48	-1.41	3.50	6.89	8.70	9.03	8.13	6.26	3.71	0.78	-2.22	-4.94	-7.01	-8.15	-8.27	-7.56	-3.66	5.81	6.89	7.53	7.56	7.00	6.06	4.86	3.51	1.99	0.24	-1.75	-4.02	-6.62	-9.60	-12.94	-16.45	-2.34	-21.00	-23.28	-23.93	-22.46	-18.80	-13.32	-6.70	0.26	6.78	12.30	16.44	19.05	20.12	19.80	18.42	16.34	6.48	5.19	2.99	1.24	0.10	-0.37	-0.25	0.28	0.95	1.45	1.52	1.01	-0.02	-1.40	-2.88	-4.27	-5.53	-11.56	11.29	9.92	8.28	6.31	4.03	1.45	-1.39	-4.41	-7.40	-9.86	-11.15	-10.61	-7.84	-2.92	3.56	10.70	10.11	-4.17	1.50	5.57	7.91	8.59	7.87	6.05	3.51	0.67	-2.06	-4.33	-5.88	-6.67	-6.75	-6.30	-5.53	-1.19	6.62	7.37	7.81	7.77	7.14	5.91	4.20	2.23	0.24	-1.57	-3.17	-4.68	-6.35	-8.42	-11.05	-14.13	-2.90	-15.60	-18.33	-19.96	-19.96	-18.01	-14.14	-8.75	-2.52	3.80	9.52	14.13	17.36	19.07	19.31	18.19	15.91	2.61	7.35	3.99	0.84	-1.61	-3.08	-3.52	-3.07	-2.05	-0.80	0.34	1.14	1.45	1.22	0.50	-0.61	-2.02	-11.99	10.94	9.06	6.93	4.52	1.81	-1.14	-4.22	-7.15	-9.52	-10.80	-10.48	-8.28	-4.22	1.28	7.51	13.69	6.12	1.01	5.25	8.08	9.43	9.34	7.95	5.46	2.31	-0.98	-3.89	-6.03	-7.28	-7.77	-7.80	-7.63	-7.44	-9.34	8.21	8.40	8.54	8.51	8.14	7.31	5.99	4.27	2.21	-0.12	-2.76	-5.77	-9.07	-12.37	-15.06	-16.41	4.13	-29.24	-26.27	-21.16	-14.53	-7.31	-0.38	5.59	10.23	13.43	15.18	15.48	14.32	11.79	8.25	4.21	0.35	-0.92	2.37	0.55	0.03	0.58	1.75	3.02	3.97	4.34	4.00	3.00	1.45	-0.48	-2.64	-4.92	-7.26	-9.74	-11.43	-1.95	-5.06	-8.55	-12.17	-15.40	-17.45	-17.56	-15.25	-10.53	-3.97	3.50	10.86	17.31	22.38	25.94	27.97	6.69	10.42	9.58	7.51	4.56	1.31	-1.64	-3.74	-4.78	-4.85	-4.25	-3.39	-2.60	-2.07	-1.85	-1.93	-2.34	-13.05	16.61	15.35	13.59	11.36	8.68	5.63	2.29	-1.30	-5.03	-8.65	-11.74	-13.69	-13.86	-11.72	-7.13	-0.44	12.23	-17.78	-9.68	-2.45	3.21	7.07	9.23	9.94	9.43	7.80	5.21	1.97	-1.39	-4.21	-5.96	-6.45	-5.88	1.17	6.29	7.36	7.95	7.89	7.26	6.24	5.01	3.61	2.05	0.25	-1.82	-4.20	-6.94	-10.07	-13.57	-17.28	-0.66	-19.01	-21.89	-23.45	-23.14	-20.62	-15.91	-9.47	-2.04	5.44	12.10	17.26	20.54	21.86	21.45	19.72	17.18	8.78	4.90	2.20	0.00	-1.50	-2.15	-2.01	-1.19	0.02	1.26	2.16	2.43	1.94	0.75	-0.95	-2.92	-5.01	-10.21	11.82	9.58	7.24	4.79	2.26	-0.36	-3.10	-5.91	-8.56	-10.55	-11.20	-9.89	-6.27	-0.54	6.58	14.08	12.84	-2.14	3.27	6.90	8.72	8.90	7.67	5.37	2.35	-0.90	-3.89	-6.11	-7.30	-7.39	-6.57	-5.19	-3.66	2.59	7.90	8.77	9.07	8.80	7.99	6.72	5.11	3.22	1.17	-0.96	-3.14	-5.39	-7.82	-10.57	-13.71	-17.14	0.55	-18.46	-21.14	-22.37	-21.52	-18.30	-12.94	-6.18	0.98	7.50	12.65	16.10	17.90	18.30	17.60	16.06	13.84	6.70	5.04	2.27	-0.20	-1.96	-2.77	-2.63	-1.76	-0.53	0.70	1.67	2.20	2.18	1.52	0.19	-1.75	-4.12	-12.51	12.55	10.06	7.73	5.50	3.14	0.45	-2.68	-6.07	-9.25	-11.49	-12.05	-10.41	-6.47	-0.63	6.28	13.31	9.60	-2.52	2.46	5.89	7.77	8.24	7.47	5.65	3.08	0.14	-2.73	-5.10	-6.63	-7.18	-6.77	-5.64	-4.15	-2.23	9.10	10.05	10.27	9.68	8.37	6.58	4.59	2.63	0.78	-1.02	-2.94	-5.20	-7.98	-11.30	-14.99	-18.54	-0.13	-23.39	-24.57	-23.63	-20.36	-15.04	-8.36	-1.24	5.41	10.87	14.72	16.83	17.31	16.39	14.42	11.79	8.90	1.78	4.21	1.84	0.10	-0.89	-1.14	-0.79	-0.07	0.74	1.38	1.67	1.52	0.91	-0.11	-1.47	-3.07	-4.84	-12.68	7.70	5.62	3.32	0.69	-2.32	-5.61	-8.85	-11.48	-12.79	-12.17	-9.28	-4.27	2.24	9.34	16.08	21.71	7.80	5.33	7.80	8.71	8.24	6.60	4.09	1.12	-1.82	-4.24	-5.83	-6.49	-6.34	-5.63	-4.69	-3.76	-3.05	-5.28	10.39	10.31	9.76	8.77	7.43	5.89	4.24	2.56	0.82	-1.05	-3.15	-5.57	-8.33	-11.30	-14.20	-16.57	2.37	-25.46	-25.00	-22.41	-17.68	-11.25	-3.98	3.05	8.84	12.78	14.76	15.07	14.19	12.58	10.52	8.19	5.78	5.35	0.60	-0.97	-1.54	-0.97	0.53	2.44	4.15	5.12	5.10	4.11	2.38	0.23	-2.04	-4.27	-6.39	-8.43	-9.42	4.35	2.36	0.36	-1.70	-3.85	-6.11	-8.34	-10.18	-11.09	-10.44	-7.76	-2.97	3.48	10.72	17.70	23.52	11.90	6.29	8.54	9.13	8.41	6.72	4.35	1.61	-1.19	-3.64	-5.45	-6.40	-6.54	-6.13	-5.55	-5.11	-5.02	-5.49	12.09	11.51	10.73	9.80	8.68	7.28	5.53	3.41	0.99	-1.62	-4.30	-7.02	-9.85	-12.82	-15.85	-18.58	-0.39	-25.56	-25.98	-24.45	-20.81	-15.35	-8.69	-1.65	4.93	10.40	14.36	16.70	17.54	17.13	15.81	13.92	11.76	6.61	2.64	0.83	-0.43	-0.99	-0.85	-0.18	0.76	1.64	2.21	2.31	1.89	1.00	-0.25	-1.78	-3.50	-5.37	-13.12	12.39	10.30	8.05	5.58	2.85	-0.12	-3.23	-6.26	-8.86	-10.57	-10.92	-9.52	-6.18	-1.07	5.33	12.26	9.82	-4.07	1.48	5.47	7.72	8.29	7.45	5.56	3.06	0.38	-2.10	-4.09	-5.44	-6.14	-6.27	-5.96	-5.38	-1.14	6.30	7.01	7.54	7.75	7.51	6.77	5.51	3.77	1.65	-0.72	-3.18	-5.56	-7.79	-9.91	-12.11	-14.60	-4.85	-13.78	-16.85	-19.56	-21.12	-20.79	-18.13	-13.24	-6.70	0.57	7.61	13.69	18.38	21.50	23.08	23.23	22.15	8.72	6.64	4.28	1.95	0.05	-1.24	-1.90	-2.03	-1.80	-1.36	-0.83	-0.33	0.01	0.09	-0.21	-0.98	-2.29	-13.12	17.67	15.25	12.46	9.55	6.80	4.42	2.45	0.76	-0.91	-2.83	-5.19	-7.95	-10.83	-13.27	-14.52	-13.86	6.81	-30.75	-25.37	-18.21	-10.26	-2.61	3.85	8.64	11.67	13.07	13.08	11.95	9.92	7.33	4.65	2.31	0.66	5.01	1.62	1.49	1.84	2.40	2.98	3.46	3.76	3.79	3.46	2.65	1.29	-0.64	-3.02	-5.71	-8.43	-10.91	-16.05	8.09	6.50	5.27	4.11	2.73	0.85	-1.59	-4.39	-7.12	-9.18	-9.91	-8.80	-5.61	-0.47	6.12	13.41	12.27	-7.72	-1.38	3.59	6.90	8.49	8.45	6.98	4.43	1.29	-1.85	-4.38	-5.86	-6.15	-5.46	-4.27	-3.08	4.33	5.71	6.14	6.29	6.32	6.28	6.06	5.42	4.19	2.33	0.01	-2.55	-5.10	-7.46	-9.54	-11.32	-12.83	-11.39	1.56	0.25	-1.26	-3.20	-5.65	-8.47	-11.22	-13.17	-13.49	-11.52	-7.02	-0.37	7.54	15.54	22.55	27.86	14.83	5.04	6.69	6.88	5.89	3.99	1.47	-1.25	-3.63	-5.21	-5.73	-5.26	-4.17	-2.88	-1.67	-0.61	0.44	15.96	0.48	1.76	2.95	3.76	3.96	3.44	2.31	0.82	-0.76	-2.16	-3.13	-3.47	-3.16	-2.44	-1.94	-2.45	47.90	-36.47	-40.04	-44.04	-46.65	-45.83	-40.05	-28.94	-13.44	4.47	22.30	37.64	48.54	53.66	52.35	44.72	31.72	33.27	29.70	11.68	-5.33	-19.30	-29.03	-34.23	-35.38	-33.30	-28.62	-21.42	-11.24	2.41	19.27	37.49	53.68	63.57	-41.74	138.54	126.96	104.89	75.70	43.70	12.87	-14.01	-35.45	-50.79	-59.94	-63.35	-62.28	-58.71	-54.86	-52.24	-50.98	-73.07	-18.39	-15.16	-8.50	1.56	13.29	23.97	30.87	32.31	28.06	19.20	7.54	-4.95	-16.55	-25.96	-32.29	-35.06	-106.35	-1.12	2.18	6.70	10.74	12.83	12.16	8.83	3.69	-2.02	-7.10	-10.68	-12.27	-11.75	-9.13	-4.59	1.55	-24.88	-72.72	-65.27	-58.46	-52.91	-48.69	-45.13	-40.85	-34.14	-23.41	-7.75	12.78	37.09	63.29	89.25	113.10	133.78	158.25	-31.96	-17.21	-4.12	7.96	18.97	28.04	33.81	35.07	31.28	22.85	11.09	-2.25	-15.54	-27.84	-39.26	-50.81	-20.73	115.02	99.11	80.02	58.32	35.30	12.48	-8.73	-27.19	-41.85	-51.72	-56.13	-55.11	-49.83	-42.47	-35.67	-31.51	-21.10	-30.29	-31.83	-33.74	-33.87	-30.93	-24.81	-16.49	-7.28	1.83	10.42	18.52	26.15	32.94	38.13	40.81	40.44	-16.40	32.39	26.81	20.13	13.44	7.51	2.61	-1.34	-4.56	-7.23	-9.42	-11.11	-12.32	-13.15	-13.80	-14.50	-15.39	-40.63	7.73	6.60	5.67	5.11	4.93	4.87	4.50	3.32	1.03	-2.33	-6.23	-9.63	-11.30	-10.15	-5.72	1.65	4.36	-34.17	-24.71	-16.33	-9.84	-5.30	-2.19	0.19	2.35	4.48	6.51	8.32	9.93	11.56	13.56	16.16	19.41	31.34	-3.90	-0.22	3.03	5.46	6.84	7.13	6.44	4.96	2.97	0.75	-1.44	-3.41	-5.06	-6.46	-7.79	-9.36	9.03	10.83	7.93	4.19	-0.22	-4.90	-9.29	-12.67	-14.38	-13.97	-11.33	-6.79	-1.01	5.16	10.98	15.89	19.65	23.51	7.69	8.97	9.02	7.92	5.85	3.17	0.36	-2.10	-3.89	-4.92	-5.29	-5.28	-5.16	-5.16	-5.38	-5.87	2.89	14.00	12.97	11.66	10.08	8.30	6.41	4.52	2.66	0.76	-1.30	-3.73	-6.62	-9.96	-13.52	-16.84	-19.35	6.13	-23.68	-22.91	-20.18	-15.75	-10.25	-4.46	0.91	5.39	8.76	11.03	12.29	12.71	12.49	11.88	11.17	10.62	11.86	4.63	4.64	4.81	5.00	5.09	5.00	4.66	3.95	2.75	1.02	-1.15	-3.54	-5.95	-8.22	-10.34	-12.40	-7.85	5.21	3.02	0.74	-1.63	-4.03	-6.40	-8.51	-10.00	-10.42	-9.32	-6.49	-2.03	3.61	9.76	15.67	20.76	19.41	-2.57	0.18	1.88	2.75	2.94	2.53	1.59	0.32	-1.00	-2.01	-2.45	-2.24	-1.56	-0.71	-0.02	0.29	3.20	16.37	15.87	15.07	13.96	12.46	10.44	7.85	4.73	1.25	-2.36	-5.97	-9.60	-13.40	-17.57	-22.17	-26.96	-22.30	-5.88	-9.24	-10.97	-10.81	-8.95	-5.93	-2.44	0.95	3.83	6.05	7.54	8.29	8.30	7.64	6.49	5.14	-9.97	-8.33	-8.97	-8.90	-8.12	-6.75	-4.95	-2.84	-0.53	1.86	4.16	6.13	7.51	8.13	8.01	7.29	6.26	-11.12	6.30	5.20	4.11	2.91	1.51	-0.15	-2.00	-3.93	-5.71	-7.05	-7.56	-6.83	-4.49	-0.35	5.49	12.54	26.98	-18.06	-10.98	-5.01	-0.53	2.46	4.21	5.11	5.48	5.47	5.13	4.43	3.37	1.99	0.45	-1.10	-2.45	14.45	9.04	8.33	7.82	7.27	6.44	5.20	3.62	1.91	0.27	-1.19	-2.59	-4.17	-6.18	-8.74	-11.80	-15.24	-4.61	0.15	-3.64	-7.44	-11.00	-13.85	-15.42	-15.14	-12.74	-8.37	-2.63	3.66	9.63	14.65	18.45	21.05	22.63	19.42	-0.57	-0.32	-0.48	-0.94	-1.53	-2.00	-2.11	-1.73	-0.87	0.25	1.32	2.08	2.37	2.17	1.60	0.73	0.87	18.16	16.85	15.39	13.83	12.24	10.56	8.64	6.19	2.92	-1.32	-6.41	-11.92	-17.12	-21.21	-23.43	-23.30	-1.44	-18.46	-13.97	-8.34	-2.58	2.39	5.96	7.94	8.46	7.87	6.55	4.86	3.01	1.21	-0.42	-1.78	-2.77	-6.96	2.19	2.09	2.42	3.06	3.79	4.33	4.38	3.81	2.63	1.00	-0.84	-2.69	-4.41	-5.95	-7.29	-8.54	-16.97	0.13	-1.58	-3.89	-6.82	-10.04	-12.86	-14.44	-14.08	-11.51	-6.94	-1.01	5.49	11.87	17.58	22.31	25.82	1.75	9.24	9.94	9.27	7.47	4.95	2.18	-0.40	-2.48	-3.91	-4.70	-4.96	-4.89	-4.78	-4.89	-5.44	-6.57	-16.61	10.16	8.22	6.25	4.58	3.36	2.57	1.99	1.27	0.11	-1.61	-3.78	-5.99	-7.66	-8.18	-7.07	-4.15	1.89	-18.14	-12.59	-6.70	-1.15	3.54	7.07	9.36	10.38	10.11	8.60	6.02	2.71	-0.82	-4.04	-6.47	-7.89	-6.23	-0.22	0.10	0.83	1.68	2.43	2.95	3.19	3.13	2.75	2.01	0.95	-0.40	-1.98	-3.74	-5.71	-7.91	-2.11	-14.42	-16.78	-18.69	-19.57	-18.86	-16.21	-11.69	-5.69	1.03	7.63	13.38	17.77	20.52	21.58	21.03	19.03	0.08	13.68	9.81	5.81	2.25	-0.39	-1.92	-2.51	-2.52	-2.39	-2.42	-2.66	-3.00	-3.29	-3.43	-3.46	-3.52	-10.99	7.31	6.76	5.71	4.04	1.61	-1.54	-5.10	-8.47	-10.88	-11.60	-10.23	-6.77	-1.69	4.30	10.43	16.09	9.01	0.81	4.34	6.53	7.35	6.81	5.10	2.54	-0.37	-3.08	-5.05	-5.94	-5.73	-4.73	-3.49	-2.61	-2.54	-8.25	13.89	12.38	10.62	8.98	7.64	6.49	5.25	3.57	1.26	-1.67	-5.04	-8.53	-11.73	-14.08	-15.01	-13.97	9.49	-28.42	-23.01	-16.08	-8.50	-1.27	4.88	9.54	12.59	14.07	14.02	12.50	9.65	5.86	1.68	-2.21	-5.25	0.70	1.64	0.90	1.06	1.78	2.67	3.43	3.84	3.79	3.30	2.40	1.16	-0.42	-2.38	-4.77	-7.61	-10.84	-6.02	-7.63	-11.19	-14.54	-17.27	-18.88	-18.84	-16.75	-12.51	-6.45	0.77	8.23	15.09	20.67	24.63	26.93	27.69	10.37	10.79	9.24	6.92	4.11	1.15	-1.50	-3.45	-4.41	-4.37	-3.60	-2.55	-1.72	-1.44	-1.87	-2.92	-4.39	-7.98	12.28	10.55	8.86	7.23	5.62	3.92	2.01	-0.22	-2.76	-5.46	-7.93	-9.61	-9.95	-8.54	-5.35	-0.72	7.01	-10.29	-4.85	-0.02	3.78	6.33	7.61	7.71	6.76	4.98	2.65	0.08	-2.38	-4.40	-5.74	-6.26	-6.00	-4.03	5.91	7.01	7.93	8.32	7.99	6.98	5.46	3.66	1.74	-0.29	-2.46	-4.86	-7.52	-10.41	-13.36	-16.06	2.18	-24.25	-24.97	-23.97	-21.01	-16.20	-10.02	-3.18	3.55	9.52	14.27	17.52	19.09	18.91	17.06	13.87	9.88	0.82	7.14	3.57	0.91	-0.70	-1.40	-1.42	-1.05	-0.50	0.06	0.44	0.54	0.28	-0.33	-1.24	-2.41	-3.85	-10.71	5.83	3.43	0.37	-3.26	-7.15	-10.72	-13.31	-14.26	-13.15	-9.92	-4.90	1.30	7.92	14.24	19.68	23.84	6.08	9.68	10.64	9.96	7.86	4.71	1.09	-2.38	-5.12	-6.76	-7.17	-6.52	-5.21	-3.75	-2.62	-2.11	-2.32	-11.38	14.34	13.16	11.78	10.26	8.55	6.57	4.23	1.51	-1.53	-4.79	-8.03	-10.87	-12.78	-13.16	-11.53	-7.74	10.87	-24.26	-17.22	-9.78	-2.83	2.86	6.88	9.12	9.79	9.20	7.75	5.78	3.61	1.54	-0.12	-1.08	-1.18	5.87	4.51	5.68	6.82	7.43	7.20	6.17	4.59	2.84	1.18	-0.34	-1.89	-3.69	-5.93	-8.61	-11.53	-14.44	10.16	-21.27	-23.15	-24.06	-23.67	-21.66	-17.79	-12.09	-4.93	2.95	10.57	17.01	21.63	24.20	24.96	24.36	22.96	40.36	-8.93	-10.51	-11.68	-12.19	-11.87	-10.64	-8.48	-5.55	-2.05	1.73	5.54	9.17	12.50	15.44	17.89	19.66	53.21	7.68	7.53	6.42	4.67	2.75	1.03	-0.39	-1.74	-3.28	-5.00	-6.48	-6.96	-5.86	-3.21	0.13	2.69	5.87	50.28	47.24	40.83	31.78	21.23	10.34	0.07	-8.93	-16.21	-21.50	-24.73	-26.09	-26.11	-25.65	-25.65	-26.91	-40.92	16.93	12.46	7.12	1.79	-2.76	-6.08	-8.13	-9.14	-9.33	-8.79	-7.47	-5.27	-2.17	1.82	6.64	12.33	-1.58	-20.46	-13.19	-5.60	1.72	8.07	12.81	15.54	16.11	14.58	11.25	6.56	1.05	-4.71	-10.20	-14.99	-18.60	-6.56	-15.62	-15.59	-13.36	-9.21	-3.96	1.24	5.31	7.67	8.38	8.00	7.21	6.40	5.56	4.41	2.76	0.84	-22.93	15.55	14.71	14.88	15.59	15.97	15.15	12.74	8.94	4.32	-0.67	-5.91	-11.53	-17.52	-23.35	-28.09	-30.77	-59.96	6.01	7.65	9.87	11.26	10.92	8.80	5.47	1.70	-1.95	-5.37	-8.57	-11.38	-13.13	-12.63	-8.58	-0.01	42.06	-88.77	-71.64	-52.18	-32.22	-13.41	3.08	16.57	26.78	33.51	36.66	36.36	33.08	27.69	21.28	14.75	8.49	-69.56	113.89	106.90	98.06	86.41	71.40	53.09	32.07	9.37	-13.78	-36.11	-56.40	-73.66	-87.22	-96.83	-102.56	-104.60	-64.11	-108.44	-103.07	-93.73	-80.51	-64.05	-45.67	-26.96	-9.22	7.15	22.68	38.51	55.57	74.05	93.23	111.82	128.60	101.81	-23.04	-11.28	-1.69	6.06	12.01	15.92	17.54	16.86	14.27	10.36	5.63	0.37	-5.44	-11.92	-19.08	-26.65	27.34	40.34	33.45	27.45	22.36	17.92	13.69	9.29	4.45	-0.90	-6.68	-12.70	-18.71	-24.56	-30.12	-35.30	-39.98	-11.33	-5.32	-8.43	-10.40	-11.12	-10.58	-8.94	-6.44	-3.38	-0.03	3.31	6.36	8.88	10.67	11.67	11.98	11.81	0.17	-0.07	-0.43	-0.66	-0.73	-0.63	-0.39	0.03	0.60	1.27	1.86	2.16	1.96	1.16	-0.19	-1.93	-3.93	-20.17	14.21	11.71	8.83	5.55	2.01	-1.45	-4.46	-6.69	-7.97	-8.23	-7.56	-6.05	-3.90	-1.33	1.40	4.00	-7.98	-5.92	-4.04	-2.51	-1.23	-0.14	0.77	1.40	1.69	1.62	1.32	0.97	0.77	0.81	1.08	1.47	1.91	-3.71	-1.91	-1.44	-0.93	-0.35	0.23	0.78	1.24	1.51	1.59	1.43	1.00	0.35	-0.38	-0.99	-1.23	-0.87	14.68	-18.17	-16.33	-13.87	-11.00	-7.97	-4.98	-2.16	0.45	2.88	5.14	7.22	9.05	10.60	11.91	13.06	14.18	33.28	-3.25	-2.00	-0.75	0.36	1.21	1.71	1.88	1.78	1.57	1.33	1.09	0.76	0.23	-0.63	-1.87	-3.44	14.66	13.38	11.44	9.51	7.68	6.13	4.96	4.21	3.76	3.30	2.39	0.56	-2.51	-6.97	-12.67	-19.20	-25.99	-38.52	20.79	15.29	10.98	7.83	5.64	4.07	2.77	1.40	-0.31	-2.54	-5.26	-8.24	-11.04	-13.15	-14.20	-14.06	-34.14	-17.31	-15.55	-13.58	-11.71	-10.10	-8.76	-7.56	-6.24	-4.44	-1.77	2.07	7.11	13.05	19.32	25.23	30.21	-3.06	2.82	5.16	6.23	6.21	5.23	3.43	1.05	-1.51	-3.77	-5.29	-5.81	-5.33	-4.14	-2.67	-1.31	-0.31	-4.14	1.35	1.60	1.60	1.44	1.15	0.80	0.49	0.35	0.39	0.53	0.52	0.06	-0.96	-2.32	-3.44	-3.48	20.57	-26.52	-22.91	-17.65	-11.47	-5.25	0.31	4.78	8.03	10.13	11.19	11.35	10.75	9.56	7.95	6.02	3.78	5.41	16.36	13.42	10.16	6.70	3.26	0.03	-2.73	-4.85	-6.19	-6.72	-6.59	-6.02	-5.30	-4.57	-3.87	-3.11	16.31	-13.08	-12.00	-10.80	-9.54	-8.15	-6.48	-4.37	-1.80	1.08	4.00	6.65	8.85	10.50	11.55	11.97	11.69	8.47	18.51	16.82	14.65	12.23	9.76	7.28	4.73	1.98	-1.00	-4.16	-7.30	-10.27	-12.92	-15.17	-16.96	-18.23	-15.12	4.66	4.50	4.73	5.06	5.21	4.87	3.89	2.23	0.06	-2.34	-4.56	-6.20	-6.91	-6.58	-5.30	-3.32	-7.87	-8.19	-5.69	-3.27	-1.08	0.69	1.90	2.43	2.34	1.84	1.25	0.82	0.72	0.91	1.30	1.77	2.26	-6.77	1.71	2.31	2.97	3.61	4.08	4.23	3.92	3.11	1.86	0.30	-1.40	-3.03	-4.48	-5.64	-6.48	-7.03	-5.33	-8.84	-9.12	-9.33	-9.36	-9.00	-8.02	-6.29	-3.86	-0.91	2.24	5.29	8.00	10.22	11.94	13.15	13.90	8.09	0.84	0.87	0.67	0.37	0.13	0.05	0.19	0.46	0.72	0.76	0.49	-0.03	-0.67	-1.23	-1.65	-2.00	1.64	4.04	3.40	2.49	1.39	0.19	-0.99	-2.10	-3.13	-3.95	-4.35	-4.09	-3.00	-1.11	1.31	3.85	6.11	3.31	6.15	7.22	7.71	7.72	7.29	6.41	5.06	3.26	1.07	-1.38	-3.87	-6.25	-8.31	-9.90	-10.89	-11.27	-5.86	-1.97	-1.57	-1.21	-1.13	-1.37	-1.73	-1.88	-1.54	-0.63	0.64	1.88	2.69	2.85	2.42	1.65	0.93	4.40	-9.63	-9.31	-8.33	-6.73	-4.64	-2.24	0.27	2.63	4.60	5.92	6.46	6.25	5.46	4.32	3.07	1.84	-0.60	5.64	4.41	3.15	1.88	0.73	-0.18	-0.72	-0.92	-0.87	-0.79	-0.86	-1.16	-1.69	-2.31	-2.91	-3.43	-7.02	2.53	2.03	1.36	0.39	-0.87	-2.37	-3.89	-5.14	-5.77	-5.48	-4.10	-1.76	1.26	4.48	7.45	9.83	2.12	2.36	3.40	3.93	4.03	3.70	2.88	1.58	-0.05	-1.71	-3.00	-3.66	-3.64	-3.13	-2.50	-2.11	-2.15	-5.43	4.95	4.25	3.51	2.89	2.40	1.95	1.44	0.79	0.03	-0.81	-1.69	-2.60	-3.50	-4.31	-4.78	-4.56	1.45	-10.26	-7.99	-4.84	-1.28	2.10	4.78	6.45	7.05	6.70	5.58	3.91	1.85	-0.40	-2.63	-4.66	-6.30	-5.16	-0.87	-1.56	-1.80	-1.67	-1.35	-1.00	-0.74	-0.61	-0.48	-0.21	0.31	1.04	1.81	2.36	2.51	2.24	3.29	-6.79	-7.48	-8.12	-8.59	-8.76	-8.43	-7.40	-5.49	-2.69	0.75	4.39	7.75	10.50	12.47	13.70	14.26	2.87	14.62	13.91	12.51	10.52	8.08	5.42	2.73	0.11	-2.37	-4.69	-6.78	-8.56	-10.01	-11.12	-11.92	-12.46	-15.37	5.45	5.29	5.24	5.18	5.00	4.57	3.80	2.64	1.05	-0.92	-3.18	-5.45	-7.29	-8.17	-7.65	-5.59	3.42	-20.95	-16.58	-11.86	-7.30	-3.28	-0.01	2.47	4.21	5.31	5.93	6.25	6.44	6.65	6.98	7.51	8.19	2.12	10.23	10.82	11.05	10.67	9.59	7.84	5.58	2.98	0.21	-2.60	-5.36	-7.97	-10.34	-12.45	-14.31	-16.00	-2.71	-12.72	-14.07	-14.97	-15.05	-13.96	-11.56	-7.98	-3.62	0.97	5.30	9.10	12.24	14.71	16.48	17.48	17.62	4.09	10.13	8.81	7.23	5.80	4.75	4.12	3.68	3.13	2.17	0.62	-1.55	-4.21	-7.13	-10.02	-12.66	-14.91	-28.22	15.46	13.59	11.49	8.91	5.79	2.22	-1.50	-5.05	-8.08	-10.31	-11.41	-11.10	-9.17	-5.61	-0.62	5.36	0.07	-16.49	-10.14	-4.32	0.70	4.72	7.60	9.20	9.39	8.19	5.84	2.81	-0.28	-2.84	-4.48	-5.08	-4.81	-11.15	7.19	8.12	8.88	9.27	9.18	8.56	7.39	5.68	3.46	0.74	-2.42	-5.95	-9.67	-13.38	-16.90	-20.18	-11.19	-23.20	-26.14	-28.75	-30.47	-30.33	-27.26	-20.62	-10.60	1.56	13.84	24.14	30.92	33.74	33.32	31.11	28.69	53.47	-37.46	-37.57	-36.42	-34.39	-31.70	-28.28	-23.76	-17.70	-9.69	0.40	12.41	25.72	39.21	51.45	61.00	66.74	-10.40	132.09	129.42	123.16	113.90	101.97	87.14	68.69	45.59	17.08	-16.73	-54.39	-93.04	-128.93	-158.35	-178.67	-188.93	-103.13	-97.21	-90.87	-79.50	-65.15	-49.43	-33.45	-18.00	-3.58	9.61	21.71	33.29	45.10	58.04	72.77	89.41	107.28	46.90	-25.08	-9.46	2.51	10.05	13.43	13.81	12.60	10.86	8.98	6.76	3.80	-0.11	-4.79	-9.79	-14.63	-18.98	8.53	15.63	12.40	9.53	6.82	3.94	0.55	-3.54	-8.17	-12.67	-15.98	-16.89	-14.55	-8.78	-0.10	10.38	21.40	59.97	-19.56	-10.36	-2.84	2.84	6.62	8.53	8.70	7.45	5.32	2.94	0.86	-0.58	-1.42	-1.99	-2.69	-3.87	28.06	26.29	24.08	21.63	19.09	16.41	13.34	9.62	5.05	-0.25	-5.92	-11.47	-16.44	-20.59	-23.99	-26.96	-29.91	-7.20	2.05	-1.82	-6.28	-11.09	-15.82	-19.78	-22.14	-22.05	-18.91	-12.59	-3.59	7.07	18.08	28.17	36.41	42.31	29.71	8.87	10.09	9.41	7.33	4.41	1.34	-1.27	-2.99	-3.77	-3.87	-3.77	-3.89	-4.41	-5.19	-5.94	-6.42	4.84	18.23	17.98	17.22	15.51	12.70	8.96	4.71	0.53	-3.13	-6.02	-8.21	-10.06	-12.11	-14.83	-18.49	-22.92	-0.34	-22.31	-26.11	-28.14	-27.68	-24.40	-18.56	-10.85	-2.22	6.33	13.92	19.87	23.81	25.61	25.48	23.88	21.44	15.89	2.60	0.41	-0.99	-1.52	-1.30	-0.61	0.26	1.06	1.67	2.01	2.03	1.67	0.83	-0.57	-2.54	-4.96	-10.59	18.78	15.94	13.19	10.63	8.25	5.89	3.32	0.31	-3.25	-7.20	-11.01	-13.90	-14.99	-13.59	-9.47	-2.87	16.68	-21.86	-12.90	-4.36	2.85	8.09	11.08	11.89	10.89	8.61	5.62	2.45	-0.53	-3.08	-5.08	-6.46	-7.21	4.84	4.47	4.81	5.44	6.09	6.49	6.40	5.67	4.34	2.51	0.39	-1.83	-4.04	-6.25	-8.61	-11.32	-14.56	-16.66	3.03	-1.56	-6.74	-12.17	-17.29	-21.27	-23.21	-22.27	-18.06	-10.75	-1.15	9.47	19.72	28.43	34.89	38.89	16.07	7.96	8.01	6.90	5.09	2.96	0.79	-1.18	-2.77	-3.84	-4.34	-4.32	-3.93	-3.36	-2.83	-2.53	-2.66	-9.43	22.07	20.54	18.25	15.32	12.01	8.62	5.37	2.34	-0.52	-3.40	-6.55	-10.19	-14.40	-19.01	-23.49	-26.96	6.09	-43.88	-42.35	-37.51	-29.66	-19.76	-9.12	1.01	9.70	16.47	21.19	23.98	25.02	24.54	22.83	20.27	17.31	10.86	9.65	7.19	5.36	4.15	3.41	2.91	2.47	1.95	1.28	0.43	-0.71	-2.28	-4.38	-7.09	-10.33	-13.93	-25.49	18.72	15.13	11.79	8.67	5.60	2.28	-1.50	-5.74	-10.10	-13.84	-15.96	-15.54	-11.99	-5.34	3.72	14.03	12.99	-14.19	-5.15	1.91	6.68	9.20	9.70	8.62	6.41	3.58	0.63	-2.02	-4.08	-5.37	-5.85	-5.55	-4.60	2.95	6.80	8.25	9.43	10.01	9.80	8.78	7.05	4.83	2.30	-0.41	-3.25	-6.21	-9.27	-12.47	-15.91	-19.72	-11.36	-9.70	-14.33	-18.83	-22.38	-24.00	-22.89	-18.78	-12.08	-3.76	5.01	13.11	19.77	24.61	27.52	28.62	28.15	5.01	10.07	7.56	4.72	1.98	-0.31	-1.98	-2.95	-3.25	-2.98	-2.34	-1.60	-1.03	-0.86	-1.21	-2.14	-3.63	-23.00	22.33	19.76	16.78	13.51	10.11	6.68	3.20	-0.48	-4.52	-8.88	-13.11	-16.38	-17.67	-16.12	-11.38	-3.76	9.75	-26.96	-16.71	-6.99	1.21	7.31	11.09	12.64	12.25	10.35	7.47	4.14	0.87	-1.92	-3.96	-5.15	-5.59	-1.96	6.19	6.40	6.43	6.12	5.46	4.64	3.79	2.99	2.17	1.13	-0.31	-2.30	-4.95	-8.28	-12.34	-17.11	-12.78	-11.61	-17.09	-22.11	-25.76	-27.16	-25.65	-21.03	-13.71	-4.64	5.00	14.06	21.72	27.60	31.64	33.97	34.69	4.32	16.80	14.66	11.50	7.81	4.17	1.05	-1.33	-2.97	-4.07	-4.83	-5.44	-5.98	-6.55	-7.24	-8.16	-9.37	-20.83	14.34	12.75	11.10	9.39	7.45	5.03	1.88	-2.02	-6.41	-10.65	-13.84	-14.98	-13.33	-8.56	-0.94	8.71	15.68	-17.28	-7.12	1.61	8.14	12.16	13.68	13.00	10.57	6.93	2.67	-1.64	-5.41	-8.22	-9.75	-10.02	-9.25	1.45	6.34	7.79	8.88	9.32	8.99	7.91	6.23	4.15	1.92	-0.34	-2.62	-5.03	-7.82	-11.18	-15.12	-19.43	0.19	-22.39	-25.82	-27.69	-27.29	-24.20	-18.46	-10.67	-1.89	6.70	14.05	19.57	23.12	24.85	25.01	23.79	21.37	9.69	8.51	4.63	0.85	-2.20	-4.06	-4.56	-3.86	-2.40	-0.66	0.91	1.98	2.37	2.04	0.93	-0.92	-3.50	-14.23	17.22	13.56	9.65	5.64	1.59	-2.50	-6.55	-10.32	-13.29	-14.77	-14.07	-10.86	-5.28	2.02	10.08	17.91	9.40	1.06	6.27	9.58	10.90	10.24	7.87	4.29	0.18	-3.64	-6.52	-8.06	-8.28	-7.53	-6.34	-5.27	-4.76	-13.23	17.66	16.74	15.29	13.56	11.69	9.71	7.48	4.78	1.41	-2.71	-7.43	-12.36	-16.78	-19.81	-20.60	-18.56	5.52	-32.39	-25.10	-16.44	-7.59	0.42	6.87	11.44	14.05	14.77	13.77	11.35	8.00	4.32	0.98	-1.51	-2.93	-5.45	7.62	7.85	8.31	8.59	8.43	7.71	6.48	4.89	3.08	1.13	-1.04	-3.68	-7.14	-11.68	-17.24	-23.31	-3.88	-30.51	-34.58	-36.02	-34.25	-29.22	-21.44	-11.84	-1.49	8.53	17.31	24.20	28.82	31.18	31.49	30.14	27.63	8.50	12.04	8.60	5.41	2.89	1.31	0.68	0.71	0.95	0.93	0.40	-0.68	-2.19	-4.04	-6.22	-8.81	-11.91	-16.25	9.18	4.95	0.18	-5.06	-10.54	-15.72	-19.73	-21.51	-20.17	-15.39	-7.58	2.13	12.34	21.78	29.61	35.45	20.29	2.79	4.89	5.41	4.54	2.58	-0.02	-2.65	-4.66	-5.56	-5.17	-3.69	-1.68	0.21	1.37	1.41	0.26	-10.10	28.51	25.72	22.63	19.46	16.25	12.82	8.93	4.37	-0.96	-6.94	-13.15	-18.97	-23.59	-26.19	-26.06	-22.90	8.92	-35.91	-27.73	-18.47	-9.32	-1.29	4.95	9.14	11.38	11.95	11.32	9.96	8.38	7.00	6.16	6.01	6.49	15.28	1.04	2.07	2.97	3.59	3.95	4.11	4.13	3.96	3.46	2.47	0.89	-1.25	-3.80	-6.54	-9.26	-11.84	-14.48	15.57	13.39	11.24	8.88	5.98	2.28	-2.26	-7.27	-12.00	-15.42	-16.54	-14.69	-9.77	-2.29	6.75	16.17	17.99	-7.64	-0.61	4.28	6.88	7.33	5.97	3.37	0.20	-2.77	-4.86	-5.63	-5.01	-3.31	-1.15	0.84	2.19	13.13	7.59	7.44	6.88	6.24	5.68	5.18	4.59	3.68	2.29	0.40	-1.91	-4.46	-7.08	-9.65	-12.16	-14.68	-11.76	7.60	4.83	1.80	-1.54	-5.19	-8.93	-12.26	-14.49	-14.85	-12.80	-8.28	-1.76	5.89	13.60	20.48	25.88	12.24	5.49	7.25	7.27	5.84	3.41	0.55	-2.12	-4.09	-5.10	-5.15	-4.49	-3.47	-2.42	-1.54	-0.92	-0.55	-2.48	14.28	14.05	13.35	12.05	10.06	7.37	4.21	0.85	-2.35	-5.14	-7.39	-9.15	-10.63	-12.07	-13.73	-15.78	-7.86	-12.88	-15.62	-18.22	-20.05	-20.43	-18.76	-14.79	-8.76	-1.41	6.27	13.24	18.70	22.26	23.90	23.88	22.62	4.39	8.26	5.71	3.03	0.54	-1.49	-2.86	-3.47	-3.36	-2.75	-1.90	-1.08	-0.44	-0.04	0.12	0.04	-0.36	-12.83	16.02	14.64	12.74	10.45	8.04	5.79	3.86	2.23	0.61	-1.42	-4.23	-7.86	-11.87	-15.36	-17.19	-16.45	3.27	-28.89	-22.73	-15.06	-7.14	-0.11	5.36	9.02	10.98	11.49	10.88	9.42	7.38	5.12	2.97	1.22	0.05	0.44	2.29	2.15	2.29	2.56	2.91	3.27	3.58	3.67	3.36	2.47	0.96	-1.07	-3.43	-5.92	-8.38	-10.71	-15.46	3.01	0.97	-1.00	-3.04	-5.25	-7.63	-9.96	-11.74	-12.29	-10.98	-7.41	-1.67	5.66	13.59	20.98	26.84	10.25	4.89	6.49	6.29	4.87	2.84	0.62	-1.45	-3.15	-4.28	-4.70	-4.39	-3.48	-2.30	-1.23	-0.57	-0.50	-8.86	18.08	16.99	15.35	13.16	10.41	7.26	3.94	0.74	-2.14	-4.64	-6.93	-9.26	-11.79	-14.56	-17.28	-19.37	0.22	-29.19	-27.94	-24.37	-18.71	-11.65	-4.21	2.64	8.23	12.28	14.82	16.04	16.09	15.07	13.09	10.40	7.37	0.42	4.24	1.82	0.16	-0.63	-0.62	-0.03	0.87	1.74	2.32	2.44	2.00	0.99	-0.57	-2.60	-4.90	-7.29	-16.04	6.88	4.77	2.72	0.48	-2.19	-5.34	-8.69	-11.61	-13.26	-12.87	-10.02	-4.79	2.20	10.00	17.60	24.14	7.02	6.05	9.27	10.81	10.84	9.54	7.12	3.92	0.33	-3.11	-5.92	-7.80	-8.68	-8.77	-8.40	-7.87	-7.38	-10.46	10.46	10.62	10.50	9.93	8.82	7.15	5.07	2.85	0.69	-1.36	-3.45	-5.89	-8.90	-12.36	-15.79	-18.36	0.71	-30.30	-28.64	-24.39	-18.05	-10.53	-2.96	3.76	9.08	12.88	15.27	16.37	16.22	14.81	12.25	8.88	5.31	-1.67	4.60	2.54	1.69	1.87	2.64	3.45	3.87	3.67	2.85	1.53	-0.10	-1.89	-3.75	-5.66	-7.63	-9.72	-10.33	-3.32	-5.81	-8.57	-11.55	-14.47	-16.82	-17.86	-16.87	-13.36	-7.42	0.38	9.03	17.45	24.75	30.39	34.12	10.06	15.48	15.36	13.55	10.42	6.48	2.32	-1.47	-4.45	-6.40	-7.35	-7.51	-7.25	-6.94	-6.88	-7.25	-8.04	-16.82	17.71	16.32	14.68	12.73	10.36	7.49	4.16	0.42	-3.61	-7.69	-11.45	-14.30	-15.57	-14.64	-11.20	-5.45	7.38	-22.26	-14.18	-6.40	0.33	5.59	9.21	11.18	11.54	10.37	7.90	4.52	0.84	-2.46	-4.76	-5.79	-5.62	-4.73	7.39	8.35	8.81	8.46	7.35	5.82	4.23	2.80	1.53	0.20	-1.47	-3.75	-6.74	-10.38	-14.38	-18.20	1.22	-27.07	-28.33	-27.33	-23.87	-18.20	-11.03	-3.30	4.07	10.40	15.31	18.63	20.36	20.53	19.27	16.84	13.68	5.14	6.44	3.55	1.55	0.63	0.67	1.33	2.14	2.67	2.64	1.99	0.79	-0.82	-2.69	-4.73	-6.90	-9.19	-6.66	0.24	-2.25	-4.86	-7.65	-10.55	-13.29	-15.29	-15.82	-14.16	-9.98	-3.49	4.54	13.00	20.81	27.15	31.60	12.64	14.78	15.41	14.40	11.98	8.46	4.29	0.06	-3.65	-6.38	-7.93	-8.43	-8.30	-8.05	-8.12	-8.73	-9.83	-10.40	11.86	10.50	9.30	8.21	7.08	5.70	3.88	1.54	-1.30	-4.49	-7.68	-10.34	-11.76	-11.23	-8.29	-2.96	13.81	-20.05	-12.14	-4.58	1.74	6.33	9.14	10.34	10.18	8.82	6.46	3.40	0.10	-2.86	-4.96	-5.95	-5.94	3.69	4.77	5.43	5.76	5.62	5.15	4.63	4.27	4.07	3.77	2.98	1.31	-1.42	-5.13	-9.46	-13.91	-17.90	3.77	-20.95	-22.40	-21.92	-19.34	-14.79	-8.77	-2.08	4.37	9.81	13.72	15.94	16.56	15.81	13.99	11.43	8.54	4.15	5.36	3.05	1.51	0.78	0.76	1.14	1.60	1.83	1.71	1.22	0.42	-0.60	-1.86	-3.45	-5.48	-8.06	-2.13	-4.88	-8.36	-11.92	-15.10	-17.34	-18.02	-16.67	-13.10	-7.54	-0.61	6.77	13.67	19.29	23.20	25.22	25.45	8.29	13.69	11.11	7.68	3.88	0.23	-2.75	-4.64	-5.31	-4.88	-3.76	-2.48	-1.55	-1.31	-1.88	-3.15	-4.93	-10.72	11.97	9.66	7.18	4.50	1.57	-1.62	-4.95	-8.13	-10.65	-11.95	-11.46	-8.88	-4.24	1.97	9.01	15.95	6.35	4.93	9.47	12.14	12.84	11.64	8.83	4.88	0.43	-3.80	-7.14	-9.21	-9.97	-9.76	-9.07	-8.34	-7.81	-7.44	6.28	6.47	6.63	6.73	6.65	6.25	5.42	4.10	2.24	-0.14	-2.97	-6.02	-8.85	-10.90	-11.55	-10.38	3.28	-18.03	-13.35	-7.68	-1.79	3.56	7.79	10.52	11.62	11.13	9.24	6.26	2.62	-1.18	-4.62	-7.26	-8.83	-5.94	-0.09	0.31	1.20	2.16	2.89	3.26	3.31	3.20	2.98	2.62	1.91	0.65	-1.36	-4.14	-7.56	-11.30	-2.42	-18.39	-21.15	-22.42	-21.63	-18.53	-13.30	-6.61	0.59	7.32	12.86	16.78	18.94	19.39	18.25	15.72	12.14	-2.41	7.99	3.90	0.47	-1.80	-2.70	-2.31	-1.04	0.54	1.83	2.39	2.06	0.97	-0.58	-2.27	-3.92	-5.53	-9.79	0.08	-2.08	-4.75	-7.91	-11.25	-14.23	-16.10	-16.11	-13.76	-8.93	-2.08	5.89	13.90	20.95	26.41	29.97	8.28	13.62	13.63	12.18	9.51	5.94	1.91	-2.02	-5.28	-7.44	-8.32	-8.03	-6.97	-5.66	-4.60	-4.12	-4.36	-11.91	14.99	13.72	12.21	10.59	8.85	6.88	4.55	1.73	-1.64	-5.39	-9.11	-12.20	-13.93	-13.70	-11.16	-6.42	8.07	-19.95	-12.66	-5.47	0.81	5.59	8.62	9.89	9.58	7.99	5.53	2.65	-0.11	-2.29	-3.52	-3.68	-2.92	2.05	4.45	5.92	7.12	7.78	7.78	7.17	6.05	4.55	2.76	0.78	-1.39	-3.83	-6.66	-10.05	-14.03	-18.45	-3.69	-17.09	-20.79	-23.04	-23.20	-20.98	-16.53	-10.36	-3.21	4.09	10.78	16.24	20.08	22.09	22.33	21.03	18.60	5.29	6.57	3.45	0.76	-1.12	-1.98	-1.84	-0.90	0.41	1.63	2.35	2.33	1.53	0.05	-1.95	-4.31	-6.95	-14.02	9.49	6.43	3.23	-0.07	-3.42	-6.71	-9.68	-11.91	-12.85	-11.97	-9.00	-4.06	2.33	9.39	16.31	22.42	8.22	5.06	8.44	10.18	10.25	8.75	5.96	2.44	-1.16	-4.19	-6.20	-7.09	-7.12	-6.69	-6.25	-6.08	-6.24	-7.38	8.94	8.41	7.88	7.37	6.81	6.06	4.98	3.41	1.24	-1.54	-4.74	-7.92	-10.45	-11.62	-10.86	-7.97	8.40	-18.97	-12.94	-6.47	-0.37	4.80	8.65	11.02	11.88	11.25	9.24	6.08	2.17	-1.96	-5.72	-8.56	-10.17	-5.32	3.16	3.70	4.66	5.47	5.73	5.29	4.23	2.83	1.36	-0.03	-1.33	-2.70	-4.34	-6.46	-9.19	-12.40	-0.20	-20.83	-23.55	-24.84	-23.99	-20.65	-15.04	-7.92	-0.30	6.85	12.80	17.20	19.99	21.25	21.16	19.95	17.91	7.44	7.79	5.28	3.14	1.66	0.93	0.89	1.25	1.66	1.77	1.33	0.29	-1.26	-3.13	-5.13	-7.18	-9.28	-12.08	8.05	5.67	2.99	-0.09	-3.62	-7.45	-11.16	-13.99	-15.09	-13.79	-9.83	-3.56	4.16	12.25	19.70	25.80	14.72	3.42	6.14	7.33	7.22	6.10	4.24	1.98	-0.37	-2.49	-4.13	-5.11	-5.41	-5.20	-4.76	-4.44	-4.49	-4.84	14.51	13.52	12.21	10.71	9.08	7.30	5.35	3.21	0.88	-1.63	-4.41	-7.53	-10.99	-14.58	-17.77	-19.79	8.61	-33.27	-30.75	-25.61	-18.42	-10.18	-2.05	5.01	10.43	14.11	16.17	16.78	16.12	14.36	11.82	8.99	6.45	10.39	2.92	2.18	2.34	3.00	3.64	3.87	3.52	2.64	1.48	0.26	-0.88	-1.98	-3.18	-4.67	-6.52	-8.65	-12.05	11.61	9.64	8.09	6.97	6.14	5.29	4.08	2.27	-0.27	-3.40	-6.73	-9.61	-11.27	-11.00	-8.39	-3.48	12.00	-20.89	-13.45	-6.29	-0.27	4.14	6.90	8.20	8.34	7.58	6.11	4.12	1.90	-0.16	-1.67	-2.35	-2.17	9.58	1.08	2.15	3.08	3.61	3.65	3.30	2.77	2.20	1.60	0.91	-0.01	-1.28	-2.90	-4.79	-6.76	-8.63	-12.36	11.68	10.31	9.11	7.92	6.57	4.94	2.94	0.54	-2.24	-5.24	-8.11	-10.25	-11.00	-9.76	-6.32	-1.01	5.81	-12.84	-6.51	-1.11	2.83	5.23	6.28	6.25	5.35	3.72	1.57	-0.70	-2.57	-3.48	-3.15	-1.63	0.70	6.05	2.98	5.15	6.61	7.29	7.28	6.72	5.72	4.31	2.46	0.21	-2.34	-4.98	-7.49	-9.68	-11.44	-12.77	-12.97	5.27	4.55	3.91	3.16	2.09	0.50	-1.66	-4.20	-6.67	-8.40	-8.73	-7.21	-3.78	1.18	7.04	13.01	6.57	-1.14	3.16	6.03	7.32	7.06	5.48	3.00	0.19	-2.38	-4.26	-5.22	-5.32	-4.77	-3.90	-3.00	-2.27	-2.48	7.19	7.27	7.05	6.55	5.82	4.86	3.66	2.21	0.52	-1.32	-3.24	-5.10	-6.81	-8.31	-9.58	-10.70	-9.68	-4.58	-5.84	-7.45	-9.42	-11.53	-13.22	-13.79	-12.62	-9.39	-4.32	1.96	8.56	14.59	19.44	22.82	24.72	6.87	8.76	8.24	6.85	4.79	2.35	-0.13	-2.29	-3.82	-4.57	-4.56	-4.03	-3.26	-2.55	-2.06	-1.85	-1.87	-6.87	11.64	11.14	10.23	8.78	6.77	4.33	1.74	-0.68	-2.69	-4.21	-5.27	-6.07	-6.85	-7.87	-9.39	-11.56	-3.90	-17.23	-20.06	-22.24	-22.88	-21.28	-17.22	-11.08	-3.75	3.68	10.31	15.57	19.29	21.53	22.44	22.14	20.79	8.50	6.29	3.83	1.54	-0.10	-0.86	-0.76	-0.14	0.59	1.02	0.97	0.44	-0.39	-1.36	-2.42	-3.60	-5.05	-13.33	14.98	12.85	10.54	8.25	6.14	4.30	2.72	1.32	-0.03	-1.53	-3.36	-5.72	-8.61	-11.71	-14.38	-15.78	2.59	-31.05	-27.95	-22.52	-15.45	-7.72	-0.37	5.87	10.57	13.64	15.12	15.18	13.97	11.79	9.02	6.18	3.79	4.52	0.31	-0.25	0.07	0.93	1.93	2.73	3.17	3.25	3.02	2.50	1.66	0.40	-1.36	-3.58	-6.10	-8.70	-17.95	11.36	9.28	7.59	6.20	4.94	3.59	1.94	-0.14	-2.65	-5.35	-7.82	-9.45	-9.62	-7.84	-3.92	1.94	6.49	-15.36	-7.84	-0.94	4.51	8.02	9.51	9.19	7.49	4.94	2.05	-0.73	-3.01	-4.51	-5.08	-4.70	-3.55	1.65	2.93	4.72	6.32	7.49	8.06	7.96	7.17	5.69	3.56	0.86	-2.20	-5.35	-8.30	-10.87	-13.05	-15.05	-13.33	-2.23	-4.90	-8.18	-11.81	-15.18	-17.47	-17.88	-15.91	-11.54	-5.18	2.38	10.22	17.44	23.30	27.40	29.57	3.90	12.69	11.54	9.27	6.36	3.19	0.10	-2.64	-4.79	-6.15	-6.58	-6.14	-5.05	-3.73	-2.70	-2.40	-3.03	-19.79	19.15	17.03	14.65	12.30	10.08	7.90	5.59	3.00	0.06	-3.21	-6.73	-10.36	-13.88	-16.93	-19.03	-19.66	-6.48	-31.73	-28.57	-23.76	-17.84	-11.34	-4.72	1.76	7.83	12.99	16.52	17.74	16.45	13.37	10.19	9.08	11.99	10.36	2.92	14.78	28.32	40.11	46.66	45.58	36.43	20.86	2.21	-15.67	-29.64	-38.18	-41.53	-41.04	-38.18	-33.69	-3.73	-13.46	-5.39	4.29	14.15	22.01	25.78	24.45	18.58	9.89	0.39	-8.30	-15.20	-19.64	-21.12	-19.71	-16.70	-33.26	14.58	11.38	0.47	-17.91	-39.78	-58.47	-67.37	-62.89	-45.96	-21.30	4.98	28.13	46.17	59.61	70.00	78.36	35.59	15.77	19.19	19.18	16.12	11.37	6.69	3.39	1.77	1.07	-0.03	-2.59	-7.01	-12.82	-19.01	-24.51	-28.58	24.49	-19.93	-20.87	-20.57	-19.15	-16.57	-12.68	-7.46	-1.16	5.64	12.08	17.20	20.21	20.64	18.55	14.52	9.52	20.45	8.63	4.60	1.86	0.39	-0.13	-0.14	0.03	0.18	0.26	0.25	0.09	-0.35	-1.23	-2.64	-4.63	-7.15	-8.26	18.60	15.38	12.07	8.83	5.79	2.93	0.13	-2.78	-5.86	-8.90	-11.39	-12.63	-11.93	-8.96	-3.88	2.67	13.80	-12.27	-5.47	0.27	4.58	7.30	8.46	8.17	6.65	4.24	1.42	-1.30	-3.46	-4.75	-5.13	-4.77	-4.01	-0.84	11.38	11.80	11.63	10.80	9.34	7.37	5.04	2.45	-0.26	-2.99	-5.62	-8.04	-10.20	-12.20	-14.20	-16.38	1.91	-21.50	-23.76	-25.29	-25.35	-23.32	-18.96	-12.53	-4.72	3.54	11.31	17.82	22.57	25.38	26.27	25.43	23.17	13.08	8.73	4.99	1.34	-1.62	-3.46	-4.02	-3.41	-2.00	-0.31	1.18	2.11	2.27	1.55	-0.02	-2.29	-5.01	-11.24	16.48	13.87	11.71	9.98	8.41	6.62	4.21	0.96	-3.01	-7.30	-11.16	-13.77	-14.37	-12.51	-8.21	-1.92	10.15	-15.87	-8.28	-1.49	3.80	7.23	8.75	8.59	7.14	4.87	2.26	-0.24	-2.27	-3.61	-4.12	-3.85	-2.94	5.09	3.39	4.74	5.84	6.47	6.47	5.79	4.55	2.95	1.21	-0.49	-2.14	-3.78	-5.54	-7.49	-9.70	-12.22	-4.60	-5.41	-8.67	-12.15	-15.43	-17.81	-18.49	-16.84	-12.73	-6.58	0.71	8.06	14.52	19.50	22.74	24.27	24.24	8.59	9.70	7.36	4.44	1.43	-1.18	-3.03	-3.96	-4.03	-3.46	-2.53	-1.49	-0.56	0.03	0.05	-0.67	-2.15	-11.03	15.36	12.89	10.35	7.96	5.83	3.93	2.23	0.63	-1.00	-2.84	-5.02	-7.50	-9.91	-11.56	-11.67	-9.66	5.57	-22.00	-15.96	-9.04	-2.24	3.54	7.79	10.25	10.98	10.19	8.23	5.50	2.52	-0.21	-2.30	-3.50	-3.76	0.78	1.54	2.52	3.67	4.68	5.38	5.63	5.36	4.55	3.20	1.37	-0.83	-3.22	-5.56	-7.67	-9.47	-11.08	-11.21	-0.74	-2.78	-5.41	-8.59	-11.88	-14.53	-15.68	-14.71	-11.39	-6.05	0.57	7.57	14.13	19.63	23.68	26.16	6.91	8.95	8.46	6.87	4.53	1.88	-0.71	-2.90	-4.43	-5.14	-5.00	-4.14	-2.89	-1.67	-0.94	-0.99	-1.87	-11.39	14.93	13.11	11.25	9.49	7.77	5.99	4.06	2.01	-0.08	-2.16	-4.36	-6.87	-9.77	-12.86	-15.53	-16.90	1.73	-29.23	-25.87	-20.08	-12.67	-4.74	2.59	8.47	12.47	14.51	14.76	13.52	11.16	8.16	4.97	2.08	-0.08	0.96	-0.51	-0.71	-0.10	1.00	2.23	3.27	3.95	4.19	3.94	3.18	1.86	0.00	-2.26	-4.62	-6.80	-8.62	-15.44	6.29	4.89	3.22	1.00	-1.91	-5.34	-8.89	-11.88	-13.55	-13.15	-10.26	-4.94	2.23	10.23	17.88	24.25	10.10	3.26	5.95	7.01	6.77	5.55	3.57	1.11	-1.46	-3.68	-5.16	-5.69	-5.37	-4.48	-3.40	-2.38	-1.52	-1.12	10.40	10.90	11.10	10.77	9.70	7.83	5.31	2.43	-0.44	-3.06	-5.31	-7.31	-9.28	-11.52	-14.20	-17.28	-3.11	-18.43	-21.00	-22.25	-21.57	-18.72	-13.88	-7.67	-0.87	5.72	11.45	15.90	18.79	20.02	19.62	17.81	15.03	3.25	5.46	2.38	-0.12	-1.78	-2.54	-2.51	-1.90	-0.97	-0.01	0.77	1.22	1.27	0.93	0.27	-0.65	-1.76	-12.85	13.08	11.72	10.28	8.75	7.03	4.98	2.44	-0.68	-4.24	-7.84	-10.82	-12.41	-11.94	-9.08	-3.99	2.71	7.68	-10.42	-3.36	2.53	6.73	9.05	9.60	8.64	6.54	3.70	0.60	-2.34	-4.73	-6.32	-7.00	-6.91	-6.29	-5.98	8.14	8.71	8.77	8.24	7.17	5.73	4.18	2.64	1.15	-0.40	-2.17	-4.31	-6.94	-10.07	-13.57	-17.20	-5.50	-21.02	-23.50	-24.51	-23.52	-20.27	-14.90	-7.99	-0.39	6.97	13.22	17.83	20.56	21.45	20.79	18.95	16.39	1.87	6.16	3.43	1.15	-0.42	-1.19	-1.21	-0.66	0.15	0.88	1.24	1.06	0.34	-0.78	-2.09	-3.40	-4.65	-13.42	9.40	8.03	6.36	4.25	1.59	-1.63	-5.25	-8.90	-11.89	-13.39	-12.65	-9.27	-3.42	4.19	12.44	20.21	11.29	1.92	6.49	9.06	9.74	8.77	6.47	3.29	-0.22	-3.47	-5.98	-7.41	-7.70	-7.05	-5.84	-4.54	-3.61	-9.27	17.19	16.60	15.21	13.20	10.80	8.18	5.44	2.58	-0.39	-3.49	-6.69	-9.96	-13.24	-16.33	-18.86	-20.26	5.14	-34.29	-31.65	-26.64	-19.70	-11.65	-3.45	4.00	10.10	14.54	17.21	18.16	17.53	15.62	12.90	9.94	7.31	6.78	3.79	2.81	2.62	2.99	3.59	4.14	4.42	4.25	3.51	2.16	0.28	-1.99	-4.45	-6.93	-9.38	-11.86	-8.73	1.00	-2.02	-5.44	-9.09	-12.47	-14.90	-15.66	-14.24	-10.62	-5.19	1.27	7.86	13.82	18.71	22.33	24.65	6.23	10.69	10.34	8.64	5.74	2.08	-1.76	-5.07	-7.32	-8.19	-7.73	-6.21	-4.07	-1.79	0.24	1.75	2.59	-3.17	12.15	11.72	10.81	9.52	7.90	5.98	3.71	1.02	-2.08	-5.47	-8.79	-11.43	-12.64	-11.71	-8.25	-2.41	19.16	-17.20	-9.04	-1.39	4.86	9.23	11.62	12.24	11.33	9.16	5.99	2.17	-1.89	-5.67	-8.74	-10.81	-11.85	1.02	6.04	6.20	6.39	6.35	5.99	5.33	4.46	3.41	2.15	0.62	-1.21	-3.36	-5.85	-8.71	-12.01	-15.77	-2.38	-16.39	-20.16	-22.93	-23.87	-22.33	-18.19	-11.86	-4.23	3.62	10.69	16.33	20.25	22.47	23.17	22.56	20.84	5.77	10.18	7.24	4.36	1.97	0.39	-0.36	-0.45	-0.25	-0.12	-0.32	-0.94	-1.93	-3.13	-4.36	-5.55	-6.70	-11.09	8.95	7.50	5.66	3.31	0.45	-2.79	-6.12	-9.13	-11.26	-11.90	-10.57	-7.11	-1.74	4.87	11.79	18.09	6.15	5.80	8.99	10.35	10.01	8.26	5.45	2.01	-1.53	-4.64	-6.86	-7.95	-7.94	-7.13	-5.94	-4.80	-4.03	-12.08	14.44	14.07	13.17	11.82	10.13	8.15	5.89	3.26	0.18	-3.40	-7.32	-11.19	-14.39	-16.17	-15.80	-12.91	11.44	-31.05	-23.76	-15.48	-7.26	0.02	5.81	9.89	12.30	13.16	12.62	10.87	8.21	5.07	2.04	-0.41	-2.02	0.91	7.76	7.58	7.61	7.50	7.02	6.10	4.77	3.16	1.40	-0.44	-2.35	-4.42	-6.79	-9.59	-12.86	-16.47	-1.60	-17.56	-20.61	-22.49	-22.67	-20.82	-16.90	-11.23	-4.44	2.71	9.44	15.14	19.44	22.18	23.35	23.05	21.45	7.08	10.14	6.91	3.65	0.92	-0.82	-1.43	-1.08	-0.25	0.50	0.72	0.21	-0.97	-2.52	-4.09	-5.41	-6.42	-6.43	6.20	5.12	3.58	1.42	-1.32	-4.38	-7.39	-9.83	-11.18	-10.96	-8.84	-4.80	0.85	7.44	14.11	19.99	11.34	6.64	9.24	10.00	9.16	7.08	4.19	0.95	-2.20	-4.87	-6.72	-7.57	-7.45	-6.55	-5.22	-3.87	-2.88	-5.75	14.57	14.15	12.99	11.24	9.18	7.04	4.95	2.90	0.75	-1.68	-4.54	-7.83	-11.40	-14.93	-17.85	-19.47	3.06	-27.97	-25.28	-20.24	-13.42	-5.82	1.43	7.37	11.48	13.71	14.29	13.57	11.85	9.35	6.33	3.14	0.25	1.62	-0.46	-1.57	-1.60	-0.77	0.51	1.79	2.74	3.17	3.09	2.58	1.78	0.76	-0.46	-1.96	-3.78	-5.85	-7.57	1.11	-1.15	-3.39	-5.68	-8.07	-10.41	-12.26	-12.93	-11.73	-8.33	-2.93	3.72	10.56	16.58	21.09	23.82	4.96	12.26	11.70	9.90	7.21	4.06	0.92	-1.73	-3.60	-4.58	-4.86	-4.75	-4.59	-4.66	-5.06	-5.74	-6.56	-12.42	10.01	9.28	8.60	7.90	7.02	5.91	4.50	2.72	0.54	-2.09	-5.10	-8.16	-10.66	-11.82	-10.95	-7.73	6.52	-21.37	-14.76	-7.87	-1.66	3.22	6.57	8.47	9.15	8.81	7.62	5.73	3.38	0.89	-1.34	-2.99	-3.80	-0.24	3.01	3.73	4.71	5.49	5.64	5.00	3.68	2.04	0.43	-0.87	-1.88	-2.82	-3.98	-5.62	-7.87	-10.71	-5.82	-8.45	-11.99	-15.32	-17.83	-18.82	-17.69	-14.25	-8.77	-2.06	4.86	11.06	15.96	19.34	21.26	21.78	20.98	4.11	8.99	5.96	2.48	-0.72	-2.98	-3.94	-3.70	-2.69	-1.47	-0.47	0.14	0.34	0.24	-0.10	-0.65	-1.43	-9.25	10.92	9.66	8.07	6.13	3.86	1.36	-1.18	-3.60	-5.75	-7.51	-8.65	-8.83	-7.55	-4.44	0.55	6.94	7.20	-2.65	3.54	8.11	10.57	10.97	9.72	7.34	4.25	0.80	-2.71	-5.91	-8.37	-9.73	-9.84	-8.87	-7.20	-0.35	2.24	3.96	5.29	6.16	6.53	6.39	5.71	4.51	2.87	0.96	-1.09	-3.25	-5.62	-8.33	-11.44	-14.85	-3.80	-14.69	-17.31	-18.61	-18.13	-15.70	-11.52	-6.11	-0.16	5.59	10.52	14.18	16.29	16.75	15.66	13.27	9.97	-2.35	4.81	1.26	-1.64	-3.52	-4.23	-3.82	-2.53	-0.78	0.96	2.27	2.89	2.75	2.01	0.95	-0.18	-1.24	-10.38	5.75	4.58	3.09	1.20	-1.07	-3.60	-6.12	-8.33	-9.77	-9.98	-8.51	-5.18	-0.12	6.15	12.82	19.08	9.01	4.80	8.37	10.22	10.42	9.14	6.67	3.42	-0.07	-3.25	-5.69	-7.19	-7.79	-7.75	-7.40	-7.05	-6.91	-9.09	11.02	10.52	9.72	8.69	7.50	6.20	4.79	3.22	1.39	-0.83	-3.47	-6.51	-9.71	-12.62	-14.66	-15.18	3.08	-25.87	-22.26	-16.81	-10.22	-3.39	2.80	7.74	11.10	12.80	12.95	11.74	9.45	6.49	3.42	0.83	-0.83	2.45	-0.73	-0.26	0.87	2.19	3.34	4.07	4.28	3.99	3.24	2.12	0.71	-0.89	-2.61	-4.50	-6.65	-9.24	-4.78	-5.09	-8.58	-12.13	-15.16	-17.02	-17.10	-15.11	-11.09	-5.51	0.91	7.39	13.23	17.95	21.23	22.97	23.13	5.57	11.47	8.95	5.65	2.17	-0.90	-3.12	-4.28	-4.43	-3.84	-2.84	-1.81	-1.03	-0.71	-0.94	-1.67	-2.75	-9.10	10.69	9.47	8.31	7.08	5.54	3.43	0.64	-2.72	-6.23	-9.24	-11.05	-11.03	-8.88	-4.71	1.03	7.59	8.65	-3.62	2.16	6.64	9.49	10.59	10.01	7.98	4.86	1.13	-2.64	-5.90	-8.18	-9.23	-9.05	-7.93	-6.36	-2.81	6.58	7.56	7.83	7.45	6.63	5.59	4.45	3.20	1.73	-0.04	-2.15	-4.54	-7.15	-9.87	-12.52	-14.74	3.32	-22.15	-21.93	-19.80	-15.75	-10.21	-3.96	2.11	7.27	11.10	13.47	14.42	14.01	12.37	9.70	6.37	2.94	2.58	0.79	-1.08	-1.72	-1.27	-0.17	1.10	2.09	2.59	2.56	2.11	1.37	0.45	-0.56	-1.63	-2.75	-3.92	-4.90	2.25	0.70	-1.23	-3.58	-6.23	-8.84	-10.85	-11.64	-10.73	-7.91	-3.43	2.12	7.95	13.30	17.61	20.57	6.20	10.96	11.01	9.77	7.46	4.44	1.13	-1.94	-4.36	-5.83	-6.29	-5.92	-5.07	-4.18	-3.59	-3.54	-4.03	-12.28	13.52	12.29	10.87	9.28	7.48	5.43	3.12	0.54	-2.26	-5.20	-8.05	-10.41	-11.71	-11.37	-9.00	-4.59	7.27	-18.12	-11.25	-4.47	1.47	6.04	9.05	10.49	10.50	9.22	6.87	3.74	0.25	-3.10	-5.76	-7.33	-7.67	-0.73	1.05	2.37	3.76	4.75	5.13	4.96	4.42	3.70	2.88	1.87	0.53	-1.30	-3.69	-6.63	-10.04	-13.75	-2.74	-15.45	-18.66	-20.70	-20.92	-18.91	-14.67	-8.73	-1.96	4.65	10.29	14.53	17.27	18.69	19.02	18.45	17.11	5.54	6.87	4.54	2.20	0.28	-0.92	-1.28	-0.91	-0.15	0.59	0.96	0.77	0.04	-1.11	-2.49	-3.95	-5.47	-8.90	7.35	5.55	3.55	1.33	-1.09	-3.66	-6.23	-8.52	-10.05	-10.25	-8.68	-5.21	-0.13	5.93	12.17	17.88	9.75	3.91	7.29	9.19	9.56	8.40	5.94	2.61	-0.97	-4.14	-6.37	-7.45	-7.44	-6.67	-5.55	-4.49	-3.81	-4.28	10.37	10.01	9.23	8.16	6.91	5.55	4.07	2.49	0.78	-1.09	-3.20	-5.60	-8.27	-11.02	-13.41	-14.91	5.37	-24.61	-22.86	-19.31	-14.29	-8.41	-2.37	3.18	7.76	11.06	12.94	13.47	12.79	11.16	8.92	6.44	4.09	5.68	1.90	0.75	0.39	0.74	1.53	2.44	3.11	3.35	3.07	2.31	1.16	-0.29	-2.00	-3.95	-6.10	-8.34	-7.37	2.48	0.35	-1.69	-3.73	-5.87	-8.09	-10.09	-11.30	-11.09	-8.95	-4.82	0.86	7.25	13.43	18.69	22.62	9.46	8.33	9.53	9.47	8.24	5.94	2.89	-0.44	-3.50	-5.79	-7.04	-7.22	-6.54	-5.33	-3.96	-2.71	-1.80	-2.27	10.38	10.32	9.74	8.68	7.22	5.52	3.73	2.00	0.35	-1.29	-3.12	-5.32	-7.97	-10.90	-13.67	-15.68	0.76	-19.35	-18.22	-15.24	-10.78	-5.48	-0.14	4.53	8.03	10.16	10.92	10.50	9.16	7.20	4.96	2.77	0.97	0.15	0.40	-0.05	0.17	0.87	1.75	2.47	2.81	2.63	1.96	0.96	-0.18	-1.25	-2.14	-2.83	-3.41	-4.08	-6.17	1.33	0.01	-1.77	-3.97	-6.46	-8.91	-10.85	-11.75	-11.09	-8.57	-4.28	1.36	7.66	13.88	19.43	23.90	16.74	4.18	5.99	6.41	5.52	3.60	1.11	-1.36	-3.22	-4.12	-4.00	-3.15	-2.06	-1.28	-1.27	-2.24	-4.16	-18.23	28.22	25.35	22.55	19.93	17.37	14.50	10.94	6.42	0.96	-5.17	-11.53	-17.63	-23.04	-27.36	-30.25	-31.31	-12.16	-36.30	-32.89	-27.29	-19.94	-11.65	-3.40	3.88	9.51	13.25	15.25	15.97	15.89	15.41	14.78	14.10	13.48	5.38	-4.48	-4.49	-3.93	-2.76	-1.17	0.52	1.94	2.84	3.16	3.00	2.55	1.99	1.40	0.75	-0.09	-1.22	-0.24	2.90	1.00	-1.26	-3.82	-6.55	-9.13	-11.09	-11.84	-10.88	-8.02	-3.47	2.15	8.05	13.45	17.78	20.78	11.36	10.77	11.07	10.26	8.56	6.22	3.54	0.78	-1.81	-4.03	-5.72	-6.79	-7.20	-7.05	-6.59	-6.12	-5.94	-6.83	11.89	10.97	9.57	7.87	6.05	4.27	2.58	0.99	-0.54	-2.13	-3.89	-5.90	-8.11	-10.20	-11.63	-11.74	7.10	-23.95	-20.23	-14.79	-8.36	-1.85	3.85	8.10	10.60	11.41	10.80	9.21	7.07	4.77	2.64	0.92	-0.23	9.55	-3.19	-3.01	-2.24	-1.03	0.33	1.52	2.31	2.59	2.42	1.97	1.41	0.80	0.16	-0.56	-1.35	-2.17	11.05	-4.49	-5.33	-6.37	-7.74	-9.45	-11.23	-12.48	-12.54	-10.79	-6.98	-1.33	5.54	12.71	19.22	24.21	27.10	25.41	13.36	11.93	9.02	5.36	1.71	-1.36	-3.56	-4.84	-5.31	-5.17	-4.64	-3.94	-3.28	-2.90	-2.93	-3.39	-0.52	21.78	20.88	19.92	18.80	17.13	14.50	10.58	5.38	-0.74	-7.14	-13.07	-17.91	-21.30	-23.10	-23.40	-22.34	-31.00	10.37	13.61	17.55	21.73	25.44	27.92	28.47	26.79	22.86	16.73	8.14	-3.67	-19.64	-40.23	-64.80	-91.31	-58.81	-88.91	-109.93	-123.81	-128.59	-123.14	-106.89	-80.02	-43.91	-1.68	41.86	81.18	111.76	131.68	142.27	147.28	150.90	65.53	31.43	37.56	42.74	44.14	40.05	30.82	18.56	5.95	-5.10	-14.08	-21.61	-28.67	-35.82	-42.83	-49.07	-54.01	-9.43	17.33	14.46	11.57	8.05	3.87	-0.54	-4.35	-6.87	-7.76	-7.22	-5.88	-4.52	-3.76	-3.84	-4.66	-5.88	-5.75	-10.79	-11.72	-12.18	-12.01	-11.12	-9.50	-7.22	-4.45	-1.34	2.04	5.69	9.55	13.26	16.16	17.37	16.20	-13.13	19.87	14.18	7.57	1.26	-3.87	-7.41	-9.42	-10.12	-9.73	-8.32	-5.98	-2.97	0.27	3.18	5.27	6.30	-6.10	-0.72	-1.45	-2.56	-3.73	-4.73	-5.44	-5.76	-5.55	-4.70	-3.11	-0.84	1.94	4.95	7.91	10.66	13.11	12.76	-3.55	-1.60	0.05	1.27	1.97	2.16	1.98	1.66	1.37	1.13	0.87	0.43	-0.29	-1.30	-2.49	-3.66	2.65	5.54	5.10	5.26	5.92	6.72	7.08	6.45	4.52	1.48	-2.10	-5.43	-7.84	-8.99	-8.97	-8.09	-6.72	5.57	-8.01	-6.22	-4.30	-2.33	-0.44	1.13	2.14	2.47	2.12	1.33	0.51	0.13	0.50	1.71	3.57	5.75	15.86	-2.31	-0.17	1.86	3.75	5.32	6.26	6.29	5.33	3.56	1.40	-0.80	-2.81	-4.64	-6.33	-7.80	-8.86	-3.31	9.89	10.05	10.43	10.38	9.33	7.08	3.90	0.41	-2.69	-5.00	-6.51	-7.54	-8.48	-9.51	-10.54	-11.22	-6.69	-7.82	-6.92	-5.25	-3.18	-1.15	0.46	1.42	1.75	1.66	1.41	1.32	1.56	2.17	3.06	4.13	5.34	14.31	-14.24	-12.42	-10.04	-7.05	-3.61	-0.07	3.11	5.54	7.01	7.51	7.19	6.29	5.02	3.52	1.93	0.38	19.01	-5.55	-6.17	-5.95	-4.83	-3.02	-0.95	0.96	2.42	3.39	4.02	4.42	4.55	4.22	3.15	1.15	-1.75	-15.63	29.31	25.36	21.36	17.50	13.82	10.27	6.74	3.13	-0.67	-4.71	-9.03	-13.61	-18.34	-23.02	-27.31	-30.85	-35.58	-13.31	-14.34	-13.95	-12.32	-9.84	-6.99	-4.15	-1.49	0.96	3.37	5.90	8.55	11.19	13.62	15.64	17.24	-5.90	-11.00	-9.41	-7.39	-4.94	-2.33	0.01	1.73	2.75	3.22	3.45	3.69	4.00	4.27	4.33	4.08	3.56	-16.18	13.19	12.48	11.71	10.70	9.26	7.28	4.74	1.78	-1.41	-4.57	-7.52	-10.04	-11.93	-12.86	-12.45	-10.35	4.99	-27.56	-21.92	-15.17	-8.14	-1.75	3.29	6.64	8.36	8.82	8.49	7.79	7.04	6.41	6.01	5.85	5.88	8.72	2.28	2.38	2.39	2.24	2.00	1.70	1.40	1.08	0.68	0.13	-0.62	-1.51	-2.44	-3.28	-3.95	-4.46	-0.05	3.89	3.48	3.01	2.52	2.08	1.79	1.67	1.63	1.54	1.21	0.53	-0.58	-2.18	-4.27	-6.79	-9.54	-2.13	-10.08	-12.07	-12.93	-12.37	-10.40	-7.38	-3.86	-0.38	2.68	5.22	7.33	9.09	10.52	11.47	11.79	11.40	7.44	0.90	-0.22	-1.08	-1.32	-0.91	-0.03	0.92	1.60	1.84	1.68	1.28	0.76	0.14	-0.67	-1.77	-3.15	-2.08	4.89	3.59	2.74	2.41	2.43	2.44	2.10	1.23	-0.07	-1.47	-2.61	-3.24	-3.40	-3.36	-3.53	-4.21	-10.97	3.32	1.37	-1.02	-3.63	-6.25	-8.63	-10.37	-10.97	-9.98	-7.22	-2.91	2.31	7.63	12.27	15.83	18.25	7.68	1.08	1.86	2.07	1.76	0.98	-0.10	-1.17	-1.91	-2.10	-1.76	-1.11	-0.44	0.02	0.23	0.29	0.35	4.38	3.81	4.01	4.11	3.94	3.42	2.57	1.49	0.30	-0.87	-1.93	-2.77	-3.34	-3.62	-3.68	-3.66	-3.72	-4.24	4.66	4.22	3.63	3.00	2.38	1.78	1.09	0.22	-0.90	-2.17	-3.38	-4.22	-4.37	-3.68	-2.17	-0.06	3.77	-5.66	-3.20	-0.86	1.22	2.90	3.99	4.30	3.76	2.52	0.96	-0.47	-1.44	-1.88	-1.98	-2.00	-2.18	-1.10	2.31	1.88	1.60	1.58	1.81	2.13	2.31	2.18	1.62	0.67	-0.55	-1.83	-2.96	-3.79	-4.30	-4.65	-11.54	5.41	4.80	3.96	2.99	2.11	1.45	1.04	0.76	0.41	-0.16	-1.06	-2.25	-3.60	-4.82	-5.56	-5.40	2.68	-18.21	-15.45	-11.53	-6.90	-2.18	2.06	5.41	7.66	8.77	8.83	7.99	6.49	4.58	2.57	0.71	-0.84	-6.07	6.74	5.91	5.33	4.86	4.36	3.72	2.90	1.89	0.73	-0.50	-1.79	-3.17	-4.72	-6.54	-8.66	-11.11	-40.67	20.77	17.89	14.96	12.06	9.22	6.41	3.51	0.34	-3.22	-7.17	-11.20	-14.64	-16.53	-15.83	-11.88	-4.63	4.75	-40.32	-29.56	-19.51	-11.66	-6.91	-5.41	-6.58	-9.13	-11.35	-11.33	-7.37	1.43	14.79	31.21	48.27	63.47	73.72	5.99	13.15	16.52	17.33	16.91	16.18	15.50	14.67	13.08	9.96	4.50	-3.82	-14.94	-28.10	-41.96	-54.98	-24.83	32.54	23.87	17.21	11.76	6.79	1.92	-2.83	-7.24	-11.07	-14.03	-15.79	-15.93	-14.08	-10.20	-4.67	1.72	-1.92	-14.86	-9.31	-4.87	-1.53	0.92	2.63	3.69	4.15	4.06	3.63	3.08	2.58	2.15	1.72	1.23	0.72	0.32	-1.87	-1.85	-1.33	-0.34	0.91	2.10	2.97	3.36	3.30	2.90	2.21	1.20	-0.20	-2.06	-4.34	-6.94	-8.32	-1.05	-3.84	-6.59	-9.18	-11.36	-12.74	-12.89	-11.44	-8.37	-3.91	1.39	6.91	12.15	16.74	20.56	23.60	26.08	-8.44	-6.64	-5.25	-4.21	-3.46	-2.95	-2.54	-2.04	-1.18	0.21	2.09	4.24	6.23	7.65	8.26	8.05	12.83	20.44	19.16	17.61	15.77	13.53	10.76	7.41	3.53	-0.73	-5.14	-9.47	-13.50	-16.96	-19.59	-21.17	-21.59	-1.64	-6.39	-4.66	-2.14	0.93	4.34	7.75	10.74	12.76	13.23	11.73	8.13	2.71	-3.97	-11.24	-18.54	-25.42	-54.02	20.66	15.05	10.15	5.91	2.28	-0.89	-3.70	-6.15	-8.03	-9.06	-8.97	-7.70	-5.57	-3.13	-1.06	0.19	-45.60	-7.94	-8.41	-9.24	-10.06	-10.64	-10.82	-10.45	-9.25	-6.87	-3.07	2.02	7.88	13.65	18.45	21.66	23.14	-19.45	-2.97	-3.82	-5.01	-6.14	-7.01	-7.52	-7.58	-7.02	-5.69	-3.46	-0.38	3.38	7.51	11.65	15.47	18.67	-6.39	7.97	9.39	9.89	9.62	8.80	7.65	6.32	4.82	3.06	0.86	-1.89	-5.26	-9.21	-13.46	-17.60	-20.93	9.04	-38.15	-37.79	-34.92	-29.66	-22.49	-14.15	-5.46	2.88	10.32	16.55	21.34	24.65	26.54	27.22	26.99	26.19	26.45	7.74	6.69	5.78	5.05	4.52	4.13	3.78	3.33	2.58	1.37	-0.41	-2.75	-5.58	-8.72	-12.03	-15.45	-11.21	18.64	14.80	10.54	5.75	0.45	-5.10	-10.41	-14.75	-17.36	-17.59	-15.11	-10.02	-2.83	5.64	14.48	22.81	28.85	-10.07	-4.36	-0.12	2.84	4.74	5.70	5.73	4.84	3.16	1.04	-0.98	-2.42	-3.02	-2.88	-2.35	-1.91	8.48	18.41	17.69	16.31	14.42	12.20	9.79	7.28	4.65	1.83	-1.29	-4.87	-9.00	-13.76	-19.04	-24.61	-30.02	1.58	-27.78	-31.02	-32.16	-30.73	-26.57	-19.96	-11.58	-2.40	6.55	14.42	20.70	25.20	27.99	29.30	29.43	28.66	22.69	6.21	4.61	3.00	1.65	0.65	0.05	-0.18	-0.11	0.13	0.35	0.34	-0.11	-1.14	-2.80	-5.02	-7.64	-10.79	22.97	20.00	17.01	14.00	10.89	7.56	3.87	-0.28	-4.81	-9.42	-13.55	-16.49	-17.52	-16.15	-12.19	-5.86	23.73	-32.25	-23.08	-13.78	-5.13	2.18	7.68	11.16	12.66	12.43	10.85	8.44	5.69	3.06	0.98	-0.28	-0.56	24.40	-0.57	0.83	2.63	4.46	5.92	6.74	6.74	5.91	4.35	2.23	-0.24	-2.86	-5.48	-7.97	-10.29	-12.48	4.82	4.89	2.40	-0.63	-4.29	-8.39	-12.35	-15.29	-16.33	-14.86	-10.83	-4.73	2.56	10.05	16.99	22.97	27.81	28.77	7.51	9.92	10.97	10.60	8.94	6.32	3.30	0.37	-2.08	-3.97	-5.41	-6.63	-7.86	-9.20	-10.65	-12.15	-3.43	18.53	17.00	15.36	13.49	11.28	8.63	5.59	2.29	-1.03	-4.18	-7.05	-9.74	-12.45	-15.48	-19.06	-23.20	-16.13	-14.95	-19.25	-22.78	-24.90	-25.08	-23.01	-18.63	-12.23	-4.38	4.16	12.56	20.12	26.37	31.10	34.40	36.49	21.25	0.28	0.77	0.78	0.48	0.03	-0.38	-0.59	-0.53	-0.24	0.18	0.56	0.71	0.55	0.05	-0.77	-1.83	1.80	16.35	14.88	13.21	11.32	9.19	6.86	4.36	1.74	-0.94	-3.61	-6.22	-8.74	-11.13	-13.42	-15.72	-18.21	-16.13	-3.19	-6.60	-10.41	-14.17	-17.24	-18.89	-18.56	-15.98	-11.23	-4.74	2.87	10.86	18.47	25.07	30.19	33.63	17.16	2.22	2.82	2.52	1.69	0.60	-0.55	-1.60	-2.35	-2.66	-2.46	-1.81	-0.88	0.07	0.77	1.00	0.63	2.78	14.05	12.62	10.90	9.09	7.30	5.54	3.74	1.79	-0.34	-2.63	-4.96	-7.21	-9.34	-11.38	-13.47	-15.70	-19.84	4.51	1.94	-0.73	-3.46	-6.15	-8.65	-10.68	-11.83	-11.67	-9.83	-6.20	-0.93	5.53	12.60	19.61	25.96	9.86	1.46	5.16	7.22	7.67	6.77	4.92	2.63	0.35	-1.60	-3.06	-4.07	-4.74	-5.22	-5.59	-5.88	-6.08	-5.05	8.71	8.64	8.54	8.28	7.73	6.76	5.25	3.20	0.71	-2.01	-4.70	-7.09	-9.04	-10.55	-11.72	-12.72	-21.12	2.32	1.05	-0.59	-2.65	-5.04	-7.51	-9.63	-10.86	-10.72	-8.89	-5.33	-0.33	5.59	11.82	17.75	22.99	11.78	-5.60	-2.30	0.03	1.44	2.04	1.98	1.46	0.69	-0.09	-0.66	-0.90	-0.76	-0.30	0.35	1.03	1.57	2.03	11.56	11.37	10.69	9.49	7.83	5.80	3.56	1.29	-0.92	-3.01	-4.98	-6.89	-8.75	-10.56	-12.33	-14.10	-13.13	-0.83	-2.96	-5.38	-8.00	-10.45	-12.23	-12.75	-11.61	-8.70	-4.33	0.95	6.45	11.62	16.08	19.68	22.38	6.17	4.85	5.67	5.57	4.67	3.17	1.38	-0.42	-1.94	-2.99	-3.51	-3.53	-3.19	-2.71	-2.34	-2.22	-2.39	-6.22	9.56	8.94	8.19	7.31	6.26	5.01	3.57	1.98	0.31	-1.44	-3.23	-5.13	-7.18	-9.36	-11.52	-13.34	-1.50	-19.11	-18.94	-17.33	-14.30	-10.18	-5.55	-0.94	3.20	6.65	9.33	11.23	12.32	12.56	11.93	10.52	8.58	0.09	4.84	2.83	1.24	0.25	-0.15	-0.07	0.29	0.66	0.88	0.80	0.41	-0.25	-1.13	-2.20	-3.45	-4.88	-15.79	9.42	7.72	5.89	3.85	1.50	-1.26	-4.33	-7.36	-9.79	-10.93	-10.26	-7.58	-3.13	2.56	8.79	14.99	11.09	-6.16	-1.17	2.84	5.64	7.00	6.90	5.58	3.49	1.20	-0.80	-2.30	-3.32	-4.00	-4.52	-4.97	-5.36	-6.39	11.76	11.36	10.76	