1500966272.00 -1500966144.00 -64.00 0.00 0.00 0.00 0.00 0.00 0.00 0.00 0.00 0.00 0.00 0.01 0.00 -0.01 -0.03 -0.02 0.00 0.05 0.13 0.23 0.30 0.35 0.36 0.35 0.34 0.34 0.39 0.45 0.56 0.62 5.06 0.60 0.54 0.48 0.47 0.53 0.63 0.83 0.95 0.95 0.84 0.68 0.58 0.62 0.89 1.31 17.91 2.41 2.58 2.48 2.20 1.99 2.11 2.64 3.49 4.73 5.61 5.95 5.73 5.14 4.61 4.56 79.34 6.37 8.05 9.24 9.62 9.11 8.04 6.98 6.55 7.45 7.02 8.87 11.31 13.84 15.18 13.60 228.25 -2.89 -16.83 -31.66 -44.11 -52.71 -56.98 -58.01 -57.50 -56.72 -56.07 -55.14 -53.37 -50.13 -45.96 -41.08 -486.50 -29.24 -21.49 -11.99 -0.74 11.59 24.16 35.54 44.79 51.43 55.43 57.18 57.21 55.97 53.71 50.58 -5.90 41.48 35.85 29.92 24.15 18.88 14.31 10.46 7.22 4.38 1.82 -0.50 -2.56 -4.28 -5.58 -6.47 156.15 -7.34 -7.51 -7.61 -7.67 -7.69 -7.64 -7.53 -7.36 -7.12 -6.85 -6.58 -6.30 -6.00 -5.70 -5.39 46.78 -4.75 -4.44 -4.14 -3.84 -3.54 -3.26 -2.98 -2.72 -2.44 -2.19 -1.94 -1.71 -1.48 -1.28 -1.10 4.05 -0.78 -0.65 -0.53 -0.44 -0.35 -0.29 -0.22 -0.18 -0.14 -0.10 -0.07 -0.04 -0.02 -0.02 -0.02 0.15 -0.07 -0.07 -0.06 -0.03 0.01 0.04 0.06 0.03 -0.01 -0.04 -0.06 -0.04 0.00 0.06 0.09 0.15 0.04 -0.04 -0.12 -0.15 -0.11 0.00 0.14 0.24 0.24 0.09 -0.12 -0.33 -0.41 -0.33 -0.05 -0.47 0.53 0.53 0.26 -0.19 -0.63 -0.82 -0.66 -0.16 0.46 0.91 0.95 0.52 -0.23 -0.93 -1.27 -2.23 -0.34 0.53 1.21 1.43 1.10 0.32 -0.79 -2.18 -3.60 -4.55 -4.26 -2.24 1.42 5.74 9.11 10.87 8.49 4.69 0.35 -2.96 -4.44 -4.37 -3.59 -2.95 -2.76 -2.75 -2.42 -1.59 -0.48 0.37 0.61 -2.69 -0.48 -1.04 -1.13 -0.72 -0.03 0.58 0.89 0.80 0.44 -0.02 -0.28 -0.30 -0.07 0.31 0.68 -2.16 0.80 0.40 -0.23 -0.81 -1.09 -0.81 0.03 1.30 2.67 3.73 4.20 3.98 3.14 1.89 0.51 16.82 -1.64 -2.17 -2.35 -2.23 -1.89 -1.41 -0.86 -0.32 0.20 0.59 0.82 0.85 0.71 0.48 0.36 8.31 0.46 0.58 0.63 0.45 0.01 -0.61 -1.29 -1.78 -1.91 -1.72 -1.40 -1.24 -1.47 -2.08 -2.75 -8.98 -3.05 -2.43 -1.54 -0.77 -0.34 -0.29 -0.41 -0.54 -0.62 -0.74 -1.04 -1.47 -1.75 -1.52 -0.48 -24.65 3.45 5.36 6.58 6.84 6.31 5.32 4.21 3.17 2.18 1.17 0.09 -0.97 -1.85 -2.39 -2.50 10.08 -1.66 -0.93 -0.19 0.37 0.65 0.57 0.24 -0.17 -0.43 -0.41 -0.20 0.05 0.03 -0.37 -1.12 4.56 -2.53 -2.63 -2.29 -1.72 -1.25 -1.12 -1.30 -1.66 -1.93 -2.05 -1.99 -1.95 -2.00 -2.13 -2.09 -25.70 -0.50 1.20 3.18 4.96 6.20 6.66 6.43 5.65 4.57 3.32 2.00 0.64 -0.64 -1.75 -2.56 10.71 -2.88 -2.40 -1.59 -0.67 0.17 0.71 0.88 0.74 0.47 0.26 0.21 0.22 0.16 -0.14 -0.67 4.89 -1.78 -2.02 -2.01 -1.87 -1.76 -1.73 -1.82 -1.89 -1.91 -1.88 -1.92 -2.13 -2.52 -2.96 -3.17 -29.42 -2.04 -0.54 1.38 3.39 5.16 6.41 6.95 6.77 6.01 4.84 3.54 2.29 1.22 0.38 -0.21 15.59 -0.64 -0.57 -0.47 -0.50 -0.70 -1.05 -1.33 -1.34 -1.00 -0.41 0.17 0.46 0.32 -0.19 -0.86 6.06 -1.78 -1.96 -2.12 -2.35 -2.63 -2.82 -2.74 -2.41 -1.89 -1.47 -1.38 -1.73 -2.40 -3.12 -3.52 -31.58 -2.39 -0.80 1.25 3.47 5.51 7.07 7.91 7.93 7.23 5.96 4.39 2.75 1.26 0.06 -0.79 17.92 -1.55 -1.60 -1.55 -1.45 -1.28 -1.04 -0.72 -0.32 0.07 0.40 0.61 0.66 0.52 0.22 -0.23 9.84 -1.44 -2.05 -2.52 -2.77 -2.85 -2.74 -2.56 -2.41 -2.30 -2.25 -2.32 -2.51 -2.86 -3.30 -3.63 -32.28 -2.93 -1.44 0.72 3.23 5.56 7.30 8.20 8.27 7.71 6.75 5.53 4.13 2.58 0.92 -0.66 21.68 -2.67 -2.83 -2.50 -1.89 -1.28 -0.84 -0.64 -0.64 -0.72 -0.75 -0.69 -0.52 -0.32 -0.20 -0.27 4.33 -1.14 -1.80 -2.46 -2.90 -3.06 -2.93 -2.65 -2.38 -2.31 -2.49 -2.89 -3.27 -3.37 -2.93 -1.75 -33.84 2.55 5.08 7.22 8.56 8.82 8.08 6.60 4.86 3.21 1.80 0.58 -0.57 -1.67 -2.61 -3.12 12.46 -2.54 -1.73 -0.97 -0.48 -0.20 -0.05 0.14 0.33 0.37 0.15 -0.40 -1.15 -1.88 -2.43 -2.73 -3.90 -2.78 -2.76 -2.86 -3.12 -3.54 -4.05 -4.39 -4.23 -3.25 -1.31 1.39 4.36 6.96 8.65 9.22 3.17 7.67 6.25 4.77 3.33 1.92 0.54 -0.77 -1.90 -2.71 -3.10 -3.10 -2.71 -2.08 -1.31 -0.56 9.49 0.47 0.57 0.35 -0.13 -0.83 -1.64 -2.43 -3.06 -3.43 -3.55 -3.47 -3.36 -3.37 -3.61 -4.10 -26.80 -5.11 -5.01 -4.09 -2.22 0.45 3.52 6.42 8.65 9.89 10.12 9.55 8.48 7.12 5.60 3.98 32.81 0.53 -1.07 -2.36 -3.30 -3.72 -3.72 -3.32 -2.67 -1.94 -1.23 -0.70 -0.38 -0.32 -0.56 -1.06 5.22 -2.57 -3.28 -3.78 -3.96 -3.89 -3.68 -3.55 -3.72 -4.29 -5.32 -6.55 -7.56 -7.89 -7.09 -5.02 -68.84 1.62 4.85 7.12 8.10 7.87 6.74 5.19 3.60 2.17 1.01 0.17 -0.24 -0.02 0.95 2.66 -12.17 7.18 9.07 10.25 10.71 10.58 10.10 9.43 8.46 7.17 5.40 3.25 0.87 -1.48 -3.52 -5.05 64.28 -6.33 -6.28 -6.05 -5.84 -5.87 -6.20 -6.72 -7.30 -7.68 -7.55 -6.64 -4.80 -2.09 1.15 4.29 -2.85 8.14 8.29 7.50 6.19 4.77 3.44 2.20 0.96 -0.31 -1.58 -2.58 -3.17 -3.25 -2.88 -2.32 20.81 -1.37 -1.20 -1.17 -1.17 -1.09 -0.90 -0.67 -0.54 -0.59 -0.86 -1.28 -1.79 -2.21 -2.48 -2.56 -1.53 -2.28 -2.08 -1.95 -1.98 -2.27 -2.81 -3.52 -4.18 -4.48 -4.12 -2.89 -0.82 1.85 4.66 7.07 -12.70 9.11 8.55 7.20 5.47 3.68 2.11 0.84 -0.15 -0.91 -1.47 -1.76 -1.73 -1.38 -0.85 -0.32 15.71 0.11 0.06 -0.04 -0.07 -0.01 -0.02 -0.16 -0.48 -0.96 -1.46 -1.91 -2.27 -2.53 -2.70 -2.80 -2.30 -2.67 -2.52 -2.44 -2.48 -2.68 -3.03 -3.47 -3.87 -4.06 -3.84 -2.98 -1.37 0.90 3.49 5.95 -19.59 8.68 8.64 7.81 6.54 5.05 3.56 2.14 0.85 -0.24 -1.03 -1.51 -1.70 -1.67 -1.51 -1.30 13.69 -0.69 -0.28 0.16 0.52 0.75 0.79 0.58 0.18 -0.39 -1.02 -1.63 -2.06 -2.27 -2.24 -2.05 2.18 -1.78 -1.94 -2.27 -2.68 -2.99 -3.11 -2.98 -2.71 -2.44 -2.39 -2.60 -3.07 -3.52 -3.60 -2.95 -40.28 0.87 3.52 6.06 7.96 8.95 8.97 8.13 6.71 4.94 3.12 1.46 0.12 -0.79 -1.26 -1.40 15.78 -1.16 -1.01 -0.88 -0.73 -0.47 -0.13 0.25 0.60 0.80 0.78 0.50 0.01 -0.60 -1.20 -1.65 8.99 -2.00 -2.03 -2.08 -2.21 -2.40 -2.51 -2.48 -2.27 -1.96 -1.72 -1.66 -1.82 -2.16 -2.59 -3.03 -27.26 -3.34 -2.85 -1.67 0.20 2.59 5.09 7.17 8.42 8.64 7.92 6.57 4.91 3.24 1.67 0.26 20.62 -1.84 -2.37 -2.47 -2.20 -1.71 -1.21 -0.80 -0.54 -0.35 -0.14 0.09 0.27 0.30 0.12 -0.18 7.08 -0.77 -0.98 -1.25 -1.66 -2.20 -2.69 -2.88 -2.71 -2.24 -1.80 -1.60 -1.83 -2.41 -3.08 -3.54 -28.10 -2.92 -1.66 0.13 2.27 4.39 6.14 7.24 7.51 7.01 5.90 4.51 3.06 1.74 0.67 -0.13 17.09 -0.98 -1.13 -1.20 -1.25 -1.32 -1.42 -1.44 -1.39 -1.19 -0.87 -0.50 -0.13 0.13 0.20 0.05 4.35 -0.78 -1.31 -1.78 -2.08 -2.18 -2.12 -1.95 -1.84 -1.87 -2.16 -2.65 -3.24 -3.68 -3.66 -2.91 -31.19 0.94 3.48 5.74 7.24 7.72 7.23 6.10 4.76 3.51 2.47 1.49 0.44 -0.77 -2.02 -2.97 10.81 -3.05 -2.21 -1.16 -0.29 0.20 0.32 0.28 0.27 0.38 0.49 0.47 0.19 -0.33 -0.95 -1.46 2.19 -1.87 -1.84 -1.78 -1.74 -1.74 -1.77 -1.80 -1.83 -1.95 -2.22 -2.70 -3.29 -3.79 -3.82 -3.08 -34.48 0.86 3.36 5.52 6.94 7.52 7.39 6.77 5.82 4.65 3.25 1.76 0.35 -0.80 -1.52 -1.89 13.56 -1.82 -1.53 -1.14 -0.69 -0.27 -0.03 -0.04 -0.27 -0.58 -0.81 -0.91 -0.91 -0.94 -1.12 -1.37 -0.45 -1.64 -1.50 -1.30 -1.22 -1.40 -1.81 -2.29 -2.65 -2.79 -2.78 -2.76 -2.75 -2.63 -2.13 -0.95 -30.12 3.26 5.53 7.23 8.02 7.86 6.98 5.70 4.29 2.88 1.47 0.09 -1.27 -2.43 -3.13 -3.23 10.43 -1.77 -0.75 -0.01 0.32 0.25 -0.01 -0.22 -0.34 -0.40 -0.55 -0.90 -1.39 -1.85 -2.12 -2.11 -3.31 -1.65 -1.54 -1.62 -1.85 -2.10 -2.28 -2.39 -2.54 -2.89 -3.44 -4.02 -4.24 -3.69 -2.07 0.46 -35.72 6.23 8.17 9.00 8.74 7.74 6.33 4.83 3.34 1.90 0.53 -0.68 -1.58 -2.10 -2.17 -1.86 11.35 -0.85 -0.45 -0.22 -0.07 0.17 0.47 0.80 0.98 0.84 0.38 -0.27 -0.94 -1.49 -1.83 -2.07 4.53 -2.50 -2.70 -2.84 -2.87 -2.81 -2.74 -2.75 -2.94 -3.24 -3.62 -3.96 -4.10 -3.78 -2.80 -1.05 -38.83 4.10 6.66 8.54 9.40 9.20 8.17 6.66 5.03 3.54 2.26 1.12 0.09 -0.88 -1.71 -2.32 18.39 -2.64 -2.37 -1.89 -1.29 -0.64 -0.03 0.46 0.74 0.79 0.60 0.19 -0.33 -0.96 -1.60 -2.20 4.55 -2.94 -3.00 -2.84 -2.61 -2.38 -2.24 -2.13 -2.05 -1.92 -1.82 -1.85 -2.12 -2.57 -3.01 -3.13 -34.70 -1.40 0.51 2.84 5.18 7.16 8.47 8.93 8.53 7.42 5.80 4.02 2.31 0.86 -0.29 -1.16 22.72 -2.10 -2.18 -1.95 -1.49 -0.92 -0.39 -0.07 0.01 -0.11 -0.29 -0.42 -0.48 -0.54 -0.70 -1.00 8.66 -1.87 -2.28 -2.56 -2.77 -2.99 -3.19 -3.36 -3.33 -3.11 -2.73 -2.39 -2.30 -2.56 -3.00 -3.28 -36.03 -1.78 0.29 2.93 5.62 7.85 9.20 9.55 8.98 7.71 5.98 4.01 2.01 0.17 -1.34 -2.38 19.84 -3.09 -3.02 -2.76 -2.42 -1.95 -1.40 -0.79 -0.26 0.09 0.26 0.25 0.12 -0.05 -0.28 -0.54 3.19 -1.06 -1.26 -1.41 -1.55 -1.72 -1.96 -2.28 -2.67 -3.11 -3.60 -4.01 -4.14 -3.68 -2.36 -0.19 -29.24 5.39 7.66 8.95 9.13 8.31 6.85 5.11 3.31 1.55 -0.11 -1.63 -2.84 -3.60 -3.78 -3.35 9.23 -1.38 -0.43 0.21 0.39 0.22 -0.14 -0.47 -0.66 -0.70 -0.69 -0.75 -1.03 -1.49 -2.05 -2.55 -5.17 -3.01 -3.04 -3.05 -3.18 -3.46 -3.83 -4.22 -4.42 -4.22 -3.42 -1.89 0.30 2.92 5.56 7.79 -17.08 9.82 9.49 8.47 6.95 5.15 3.22 1.34 -0.30 -1.61 -2.45 -2.80 -2.71 -2.21 -1.41 -0.51 13.66 0.83 0.95 0.70 0.25 -0.17 -0.42 -0.55 -0.62 -0.84 -1.23 -1.82 -2.47 -3.07 -3.56 -3.90 -6.39 -4.26 -4.30 -4.30 -4.34 -4.44 -4.54 -4.43 -3.81 -2.38 -0.11 2.76 5.74 8.29 9.96 10.56 4.16 8.97 7.35 5.57 3.77 2.08 0.51 -0.83 -1.85 -2.44 -2.53 -2.22 -1.71 -1.19 -0.81 -0.56 17.93 -0.09 0.18 0.34 0.29 -0.06 -0.65 -1.28 -1.89 -2.40 -2.82 -3.14 -3.34 -3.35 -3.13 -2.81 -8.69 -2.23 -2.14 -2.16 -2.24 -2.38 -2.67 -3.11 -3.63 -3.96 -3.76 -2.70 -0.74 1.94 4.87 7.44 -17.01 9.75 9.30 8.06 6.44 4.74 3.12 1.64 0.28 -0.94 -1.92 -2.54 -2.66 -2.31 -1.59 -0.72 13.74 0.70 1.04 1.16 1.09 0.85 0.47 -0.06 -0.67 -1.29 -1.84 -2.27 -2.62 -2.92 -3.19 -3.36 -2.57 -3.22 -2.88 -2.48 -2.22 -2.25 -2.65 -3.28 -3.93 -4.26 -4.02 -3.02 -1.28 1.04 3.60 6.03 -19.43 9.09 9.21 8.41 6.91 5.03 3.16 1.49 0.15 -0.93 -1.76 -2.36 -2.61 -2.42 -1.84 -0.97 11.04 0.53 0.81 0.78 0.59 0.42 0.32 0.25 0.06 -0.39 -1.10 -2.02 -2.89 -3.49 -3.70 -3.50 -5.29 -2.39 -1.86 -1.56 -1.62 -2.11 -2.96 -3.98 -4.81 -5.02 -4.25 -2.34 0.48 3.76 6.83 9.09 -7.88 9.97 8.72 6.83 4.71 2.67 0.92 -0.47 -1.49 -2.11 -2.32 -2.17 -1.76 -1.26 -0.82 -0.57 12.48 -0.46 -0.40 -0.18 0.19 0.55 0.75 0.68 0.25 -0.43 -1.25 -2.04 -2.69 -3.16 -3.43 -3.47 -5.90 -2.90 -2.41 -1.98 -1.81 -2.01 -2.62 -3.49 -4.34 -4.85 -4.63 -3.47 -1.35 1.48 4.57 7.28 -19.28 9.88 9.45 8.19 6.49 4.75 3.19 1.95 0.96 0.12 -0.65 -1.37 -1.99 -2.36 -2.37 -2.00 13.62 -0.60 0.04 0.43 0.56 0.45 0.21 -0.06 -0.29 -0.46 -0.56 -0.68 -0.94 -1.51 -2.36 -3.36 0.30 -4.60 -4.41 -3.76 -2.93 -2.31 -2.14 -2.42 -2.98 -3.59 -4.00 -4.08 -3.66 -2.71 -1.10 1.12 -39.50 6.47 8.65 9.85 9.79 8.54 6.50 4.27 2.42 1.25 0.79 0.81 1.00 1.11 0.99 0.72 24.07 0.22 0.22 0.46 0.90 1.47 2.04 2.44 2.62 2.53 2.20 1.74 1.36 1.16 1.22 1.51 48.00 2.07 2.16 2.15 2.22 2.53 3.12 3.87 4.37 3.99 2.02 -2.06 -8.28 -15.87 -23.31 -28.72 -32.20 -27.81 -21.18 -11.97 -2.03 6.99 13.93 18.15 19.50 18.16 14.72 10.11 5.39 1.49 -1.18 -2.65 6.16 -3.34 -3.05 -2.50 -1.83 -1.42 -1.65 -2.71 -4.20 -5.42 -5.67 -4.68 -2.83 -0.97 0.05 -0.19 -35.79 -3.43 -5.13 -6.19 -6.49 -6.18 -5.48 -4.61 -3.63 -2.67 -1.83 -1.22 -0.91 -0.79 -0.63 -0.20 -84.47 2.10 3.82 5.63 7.25 8.44 9.02 8.90 8.08 6.71 5.07 3.48 2.22 1.53 1.51 2.24 -4.74 6.06 9.20 13.01 17.05 20.64 22.92 23.20 21.14 17.04 11.52 5.38 -0.68 -6.17 -10.75 -14.10 114.80 -16.05 -14.67 -12.36 -10.02 -8.45 -8.08 -8.85 -10.15 -11.22 -11.42 -10.32 -7.96 -4.69 -1.07 2.21 -13.70 5.82 5.90 5.07 3.68 2.01 0.26 -1.44 -2.90 -4.01 -4.59 -4.66 -4.31 -3.74 -3.19 -2.76 -25.01 -2.19 -1.87 -1.41 -0.80 -0.09 0.60 1.23 1.71 2.02 2.19 2.22 2.15 1.92 1.47 0.80 -15.22 -1.28 -2.41 -3.26 -3.58 -3.14 -1.86 0.12 2.56 5.03 7.07 8.32 8.60 7.98 6.73 5.18 24.49 2.29 1.14 0.13 -0.82 -1.70 -2.47 -3.01 -3.17 -3.01 -2.61 -2.11 -1.68 -1.41 -1.27 -1.21 2.40 -1.18 -1.27 -1.54 -1.98 -2.58 -3.10 -3.55 -3.92 -4.36 -4.95 -5.63 -6.06 -5.80 -4.52 -2.21 -49.50 3.75 6.18 7.73 8.40 8.40 7.99 7.25 6.13 4.47 2.29 -0.18 -2.57 -4.39 -5.34 -5.32 -9.25 -3.25 -1.87 -0.62 0.22 0.55 0.31 -0.41 -1.44 -2.54 -3.34 -3.65 -3.37 -2.66 -1.82 -1.21 -35.47 -1.59 -2.43 -3.26 -3.58 -3.06 -1.61 0.56 3.08 5.50 7.49 8.84 9.51 9.46 8.75 7.42 15.24 3.60 1.69 0.14 -0.89 -1.47 -1.86 -2.29 -2.87 -3.41 -3.59 -3.13 -1.99 -0.47 0.94 1.81 3.40 1.50 0.77 0.03 -0.63 -1.25 -1.90 -2.57 -3.10 -3.27 -2.84 -1.70 0.05 2.23 4.52 6.55 9.84 8.82 8.86 8.23 7.15 5.77 4.19 2.43 0.49 -1.55 -3.50 -5.04 -5.95 -6.12 -5.57 -4.53 20.21 -2.13 -1.19 -0.55 -0.17 0.05 0.25 0.55 0.96 1.36 1.53 1.25 0.39 -0.92 -2.39 -3.58 11.47 -3.82 -2.59 -0.64 1.75 4.17 6.26 7.70 8.33 8.17 7.42 6.36 5.22 4.10 2.98 1.73 68.88 -1.36 -2.98 -4.34 -5.20 -5.52 -5.38 -5.01 -4.68 -4.55 -4.60 -4.64 -4.50 -4.07 -3.37 -2.60 4.06 -1.84 -2.15 -2.88 -3.86 -4.83 -5.55 -5.81 -5.47 -4.41 -2.66 -0.27 2.51 5.33 7.75 9.37 -0.77 9.41 8.02 6.03 3.78 1.44 -0.91 -3.15 -5.10 -6.51 -7.13 -6.95 -6.13 -5.02 -3.91 -3.03 -22.26 -1.75 -1.26 -0.96 -1.02 -1.63 -2.68 -3.84 -4.72 -4.95 -4.40 -3.19 -1.62 0.10 1.84 3.62 -43.32 7.10 8.39 8.99 8.71 7.65 6.07 4.35 2.76 1.43 0.40 -0.35 -0.77 -0.74 -0.22 0.64 12.67 2.09 1.76 0.41 -1.78 -4.28 -6.36 -7.38 -7.10 -5.68 -3.71 -1.93 -0.96 -1.08 -2.18 -3.81 -34.64 -6.20 -6.04 -4.72 -2.38 0.75 4.26 7.76 10.74 12.76 13.46 12.71 10.68 7.78 4.62 1.74 32.86 -1.64 -1.89 -1.29 -0.06 1.44 2.78 3.45 3.09 1.48 -1.21 -4.56 -7.89 -10.53 -12.01 -12.11 -19.04 -8.85 -6.14 -3.22 -0.31 2.26 4.24 5.37 5.50 4.73 3.38 1.88 0.64 -0.17 -0.59 -0.90 -12.48 -1.76 -2.24 -2.43 -2.06 -1.15 0.20 1.63 2.77 3.38 3.40 2.99 2.39 1.79 1.32 0.83 -1.29 -0.93 -2.43 -4.17 -5.81 -6.91 -7.13 -6.29 -4.40 -1.75 1.25 4.12 6.40 7.81 8.15 7.53 0.17 3.95 1.58 -0.73 -2.66 -3.96 -4.48 -4.24 -3.40 -2.22 -0.97 0.17 1.10 1.83 2.36 2.77 -5.74 3.04 2.74 1.99 0.69 -1.14 -3.17 -4.88 -5.60 -4.88 -2.58 0.86 4.63 7.82 9.72 10.09 22.66 7.11 4.72 2.19 -0.23 -2.42 -4.24 -5.44 -5.85 -5.45 -4.46 -3.24 -2.13 -1.36 -1.02 -1.00 -1.37 -1.51 -1.74 -1.77 -1.53 -1.05 -0.56 -0.31 -0.48 -1.02 -1.56 -1.58 -0.72 1.04 3.37 5.63 2.08 7.83 7.42 6.20 4.52 2.62 0.65 -1.32 -3.11 -4.57 -5.46 -5.71 -5.33 -4.58 -3.72 -2.92 -7.63 -1.57 -0.82 0.00 0.75 1.18 1.14 0.55 -0.50 -1.82 -3.14 -4.16 -4.56 -4.04 -2.46 0.07 -23.85 6.12 8.35 9.37 9.12 7.82 5.87 3.63 1.32 -0.88 -2.87 -4.38 -5.20 -5.23 -4.52 -3.38 -0.86 -1.10 -0.37 0.08 0.34 0.52 0.62 0.67 0.56 0.24 -0.40 -1.37 -2.55 -3.70 -4.33 -4.08 -18.48 -0.46 2.33 5.00 6.98 7.92 7.75 6.58 4.65 2.26 -0.33 -2.75 -4.73 -5.94 -6.24 -5.64 -5.49 -2.86 -1.39 -0.31 0.29 0.52 0.56 0.60 0.76 1.04 1.28 1.36 1.12 0.56 -0.23 -0.95 -4.55 -1.24 -0.36 1.26 3.46 5.87 8.05 9.57 10.13 9.55 8.02 5.72 2.97 0.12 -2.42 -4.31 46.61 -5.05 -3.83 -1.86 0.37 2.42 3.97 4.91 5.33 5.38 5.21 4.90 4.45 3.78 2.83 1.66 81.55 -0.40 -0.52 0.41 2.46 5.38 8.53 11.09 12.16 11.13 7.83 2.59 -3.92 -10.90 -17.67 -23.72 57.28 -32.33 -34.22 -34.11 -31.94 -28.05 -23.14 -17.98 -13.30 -9.48 -6.58 -4.39 -2.60 -0.95 0.61 1.90 -176.78 2.00 0.44 -1.50 -2.58 -1.57 2.16 8.18 14.99 20.66 23.52 22.79 18.61 12.02 4.37 -2.88 -64.11 -12.00 -13.31 -13.31 -13.24 -14.28 -16.89 -20.61 -24.14 -25.79 -24.14 -18.35 -8.53 4.15 17.79 30.04 -177.72 43.94 45.73 46.45 48.26 52.09 56.84 59.91 58.64 51.80 40.54 27.81 16.87 9.76 6.67 6.17 400.27 6.25 4.81 1.95 -2.63 -9.46 -18.85 -30.40 -42.47 -52.69 -58.72 -59.31 -54.81 -47.13 -38.98 -32.81 -64.85 -30.04 -31.99 -33.96 -34.50 -32.89 -29.36 -24.74 -20.09 -16.29 -13.73 -12.19 -10.83 -8.29 -3.19 5.45 -343.87 32.07 46.45 57.93 64.20 64.30 58.99 50.41 41.25 33.70 28.67 25.75 23.56 20.60 15.85 9.17 230.15 -7.28 -15.02 -21.10 -24.92 -26.23 -25.21 -22.54 -19.17 -16.08 -13.87 -12.72 -12.16 -11.57 -10.27 -7.83 -19.96 0.69 6.24 11.82 16.32 18.49 17.36 12.64 5.11 -3.59 -11.51 -17.13 -19.89 -20.24 -19.15 -17.72 -57.20 -16.36 -17.06 -19.22 -23.24 -29.39 -37.05 -44.56 -49.30 -48.43 -40.12 -24.52 -3.91 17.77 36.39 49.29 -251.03 57.67 57.27 57.21 58.89 62.10 65.03 64.92 59.04 46.05 26.80 4.46 -16.49 -31.83 -39.37 -39.55 146.37 -28.16 -21.77 -16.44 -11.99 -8.27 -5.64 -4.82 -6.31 -9.48 -12.76 -14.04 -11.77 -5.52 3.52 13.22 27.25 25.57 26.05 23.40 19.24 15.16 12.19 10.51 9.51 8.31 6.32 3.42 0.02 -3.14 -5.49 -6.73 164.40 -7.46 -8.26 -9.96 -12.40 -15.02 -17.13 -18.23 -18.24 -17.38 -16.02 -14.59 -13.50 -13.18 -14.08 -16.18 -66.10 -20.74 -20.11 -15.71 -7.50 3.20 14.08 22.79 27.82 28.92 26.94 23.34 19.39 15.78 12.55 9.24 79.15 0.22 -5.75 -12.13 -18.10 -22.88 -26.09 -27.76 -28.18 -27.59 -26.08 -23.45 -19.49 -14.11 -7.56 -0.35 -173.45 12.57 16.36 17.40 15.59 11.38 5.66 -0.57 -6.56 -11.89 -16.44 -20.19 -22.95 -24.57 -24.90 -24.14 -269.51 -21.66 -21.37 -22.27 -24.05 -25.77 -25.95 -22.94 -15.46 -3.32 12.30 29.03 44.04 55.03 60.99 62.48 -127.32 58.73 56.77 55.87 55.92 56.24 55.68 52.95 46.99 37.40 24.74 10.59 -3.07 -14.59 -23.08 -28.61 283.51 -32.91 -32.52 -30.58 -27.19 -22.73 -17.91 -13.43 -9.72 -6.88 -4.69 -2.91 -1.28 0.23 1.41 1.95 85.78 -0.39 -3.44 -7.15 -10.65 -13.00 -13.48 -12.02 -9.10 -5.61 -2.44 -0.17 1.17 1.88 2.34 2.71 19.23 2.35 1.18 -0.55 -2.43 -3.87 -4.55 -4.50 -4.03 -3.42 -2.75 -1.92 -0.72 0.92 2.66 3.95 5.82 3.39 1.47 -0.98 -3.34 -5.22 -6.48 -7.09 -7.05 -6.13 -4.08 -0.93 2.90 6.56 9.24 10.43 8.79 9.34 8.32 7.53 6.78 5.59 3.56 0.86 -1.89 -3.77 -4.14 -3.02 -1.01 1.23 3.22 4.92 52.89 8.42 10.36 11.94 12.57 11.74 9.17 5.00 -0.24 -5.62 -10.15 -12.86 -13.18 -11.00 -6.62 -0.56 68.45 14.08 20.90 25.87 27.58 25.11 18.29 8.00 -4.17 -16.56 -27.83 -37.25 -44.63 -49.83 -52.71 -53.02 -128.46 -46.31 -40.68 -35.06 -30.38 -26.99 -24.65 -22.86 -21.37 -20.17 -19.37 -18.61 -17.01 -13.21 -6.26 3.78 -451.90 27.49 37.19 43.77 47.29 48.72 49.27 49.86 51.04 52.73 54.25 54.57 52.29 46.50 37.10 25.16 237.95 1.55 -6.65 -11.56 -13.75 -14.12 -13.37 -11.92 -9.95 -7.79 -6.02 -5.27 -5.85 -7.44 -9.30 -10.61 95.06 -10.09 -8.91 -8.04 -7.99 -8.89 -10.31 -11.42 -11.27 -9.20 -5.12 0.37 6.14 10.96 13.82 14.38 62.34 9.86 6.15 2.33 -1.24 -4.37 -6.82 -8.50 -9.32 -9.26 -8.36 -6.81 -4.88 -2.86 -1.14 -0.03 17.46 0.17 -0.31 -0.72 -0.94 -1.10 -1.41 -2.20 -3.46 -5.01 -6.45 -7.49 -7.81 -7.23 -5.68 -3.05 -34.67 4.86 9.23 12.87 15.04 15.26 13.60 10.52 6.64 2.57 -1.21 -4.39 -6.75 -8.07 -8.20 -7.22 14.63 -3.40 -1.63 -0.51 -0.09 -0.15 -0.36 -0.49 -0.56 -0.65 -0.93 -1.51 -2.31 -3.30 -4.35 -5.41 -17.28 -6.62 -6.01 -4.11 -0.91 3.24 7.50 11.00 13.10 13.65 12.83 11.05 8.63 5.70 2.40 -1.04 48.90 -6.59 -7.78 -7.69 -6.49 -4.70 -2.87 -1.40 -0.53 -0.27 -0.43 -0.80 -1.19 -1.53 -1.77 -2.07 0.22 -3.39 -4.56 -5.87 -6.93 -7.20 -6.18 -3.70 0.02 4.37 8.52 11.73 13.54 13.77 12.55 10.13 43.91 3.22 -0.50 -3.79 -6.25 -7.61 -7.70 -6.64 -4.80 -2.68 -0.88 0.24 0.53 0.15 -0.52 -1.05 4.43 -0.94 -0.53 -0.36 -0.79 -1.97 -3.81 -5.89 -7.54 -8.14 -7.22 -4.71 -0.95 3.41 7.55 10.78 -3.99 13.15 12.32 10.49 7.99 5.07 1.94 -1.19 -3.99 -6.11 -7.27 -7.32 -6.40 -4.86 -3.06 -1.45 5.10 0.53 0.80 0.73 0.43 0.06 -0.37 -0.84 -1.50 -2.40 -3.54 -4.77 -5.81 -6.24 -5.71 -4.05 -28.87 2.26 6.02 9.28 11.43 12.04 11.05 8.80 5.80 2.54 -0.61 -3.47 -5.85 -7.53 -8.22 -7.77 0.71 -3.92 -1.55 0.37 1.48 1.81 1.58 1.08 0.55 -0.01 -0.67 -1.44 -2.38 -3.40 -4.43 -5.30 -21.36 -5.84 -4.99 -3.06 -0.11 3.57 7.30 10.39 12.21 12.54 11.46 9.22 6.21 2.78 -0.74 -3.93 29.28 -7.66 -7.60 -6.33 -4.28 -2.04 -0.13 1.09 1.61 1.53 1.10 0.52 -0.10 -0.80 -1.64 -2.67 -1.97 -5.04 -6.08 -6.74 -6.83 -6.09 -4.40 -1.69 1.79 5.50 8.74 10.81 11.37 10.44 8.48 5.98 27.63 0.82 -1.58 -3.68 -5.30 -6.10 -5.98 -4.97 -3.44 -1.80 -0.42 0.49 0.94 1.00 0.83 0.50 -0.95 -0.30 -0.79 -1.44 -2.34 -3.41 -4.40 -4.82 -4.27 -2.53 0.21 3.43 6.46 8.67 9.69 9.44 20.73 5.88 3.17 0.32 -2.31 -4.33 -5.53 -5.79 -5.32 -4.35 -3.17 -1.95 -0.85 0.05 0.65 0.88 -1.18 0.31 -0.23 -0.76 -1.20 -1.66 -2.33 -3.29 -4.45 -5.37 -5.47 -4.29 -1.74 1.83 5.61 8.70 -5.10 10.54 9.26 7.03 4.34 1.53 -1.20 -3.59 -5.40 -6.32 -6.27 -5.36 -3.85 -2.18 -0.63 0.65 -4.96 2.16 2.34 2.08 1.42 0.48 -0.56 -1.63 -2.71 -3.86 -4.90 -5.58 -5.45 -4.16 -1.68 1.61 -20.50 7.48 8.79 8.71 7.56 5.74 3.65 1.46 -0.72 -2.81 -4.59 -5.78 -6.14 -5.64 -4.45 -2.95 -11.69 -0.36 0.46 1.04 1.44 1.59 1.46 0.94 0.12 -0.94 -2.06 -3.10 -3.98 -4.48 -4.29 -3.10 -27.77 2.32 5.64 8.28 9.50 9.04 7.13 4.43 1.66 -0.69 -2.39 -3.46 -3.97 -3.93 -3.40 -2.48 -1.48 -0.41 0.23 0.40 0.23 -0.13 -0.56 -0.98 -1.42 -1.96 -2.67 -3.47 -4.25 -4.76 -4.61 -3.57 -30.88 1.51 4.81 7.77 9.73 10.30 9.54 7.73 5.27 2.57 -0.13 -2.56 -4.55 -5.77 -6.07 -5.38 0.00 -1.96 -0.12 1.20 1.80 1.65 1.04 0.28 -0.37 -0.86 -1.33 -2.03 -3.12 -4.52 -5.88 -6.67 -27.39 -5.13 -2.69 0.39 3.62 6.45 8.55 9.69 9.80 8.88 7.09 4.64 1.90 -0.72 -2.79 -3.96 14.26 -3.22 -1.72 -0.10 1.16 1.74 1.57 0.88 0.02 -0.70 -1.12 -1.31 -1.42 -1.66 -2.08 -2.70 0.17 -4.21 -4.87 -5.19 -4.83 -3.56 -1.35 1.56 4.55 6.95 8.25 8.30 7.28 5.60 3.60 1.56 23.44 -2.07 -3.36 -4.05 -4.01 -3.35 -2.21 -0.93 0.25 1.07 1.43 1.26 0.65 -0.24 -1.19 -1.97 2.27 -2.58 -2.47 -2.34 -2.34 -2.63 -3.16 -3.84 -4.29 -4.18 -3.14 -1.14 1.67 4.69 7.31 8.95 2.11 8.57 6.97 4.88 2.68 0.56 -1.39 -3.03 -4.18 -4.66 -4.35 -3.35 -1.94 -0.50 0.54 1.04 4.97 0.68 0.25 -0.12 -0.49 -0.90 -1.42 -1.96 -2.42 -2.72 -2.84 -2.98 -3.22 -3.58 -3.86 -3.65 -26.90 -0.71 1.96 4.87 7.39 9.01 9.48 8.80 7.20 4.99 2.44 -0.16 -2.54 -4.40 -5.56 -5.90 4.52 -4.39 -2.98 -1.46 -0.06 1.04 1.67 1.73 1.28 0.41 -0.56 -1.35 -1.73 -1.71 -1.48 -1.30 -7.77 -1.83 -2.52 -3.27 -3.83 -4.06 -3.79 -2.86 -1.26 0.98 3.54 6.01 7.82 8.64 8.33 7.10 16.48 3.18 1.12 -0.76 -2.38 -3.60 -4.27 -4.29 -3.69 -2.64 -1.42 -0.29 0.49 0.85 0.76 0.32 -0.40 -0.80 -1.10 -1.11 -1.02 -0.95 -1.11 -1.51 -2.10 -2.73 -3.26 -3.57 -3.46 -2.73 -1.22 1.05 -22.29 6.30 8.07 8.67 8.00 6.36 4.17 1.95 -0.04 -1.65 -2.86 -3.70 -4.11 -4.13 -3.71 -2.85 -3.47 -0.32 0.85 1.51 1.46 0.80 -0.18 -1.05 -1.54 -1.54 -1.31 -1.19 -1.35 -1.84 -2.46 -2.95 -17.85 -3.35 -3.24 -2.82 -1.90 -0.27 2.01 4.61 6.96 8.53 8.92 8.13 6.43 4.26 2.05 0.02 20.89 -2.81 -3.55 -3.81 -3.56 -2.84 -1.75 -0.49 0.58 1.22 1.29 0.81 0.00 -0.93 -1.77 -2.37 -1.79 -2.77 -2.63 -2.38 -2.20 -2.27 -2.60 -3.09 -3.45 -3.27 -2.25 -0.35 2.15 4.74 6.94 8.32 1.86 8.27 7.02 5.19 2.99 0.67 -1.57 -3.41 -4.61 -5.04 -4.73 -3.88 -2.70 -1.52 -0.50 0.25 -1.00 0.89 0.80 0.45 -0.07 -0.62 -1.07 -1.29 -1.32 -1.27 -1.37 -1.79 -2.54 -3.56 -4.43 -4.79 -27.27 -2.75 -0.36 2.46 5.16 7.17 8.18 8.09 7.08 5.42 3.47 1.46 -0.39 -1.86 -2.84 -3.27 6.58 -2.65 -1.85 -0.88 0.13 1.06 1.69 1.87 1.47 0.61 -0.46 -1.47 -2.11 -2.45 -2.59 -2.80 -7.04 -3.79 -4.49 -5.04 -5.21 -4.78 -3.59 -1.61 0.98 3.74 6.23 7.95 8.67 8.41 7.36 5.75 17.34 1.62 -0.58 -2.58 -4.03 -4.68 -4.42 -3.35 -1.88 -0.42 0.70 1.24 1.22 0.76 0.09 -0.63 -0.80 -1.54 -1.68 -1.77 -1.99 -2.52 -3.37 -4.31 -4.98 -4.97 -4.04 -2.18 0.34 3.06 5.55 7.47 -9.14 8.84 8.29 7.02 5.21 3.08 0.85 -1.17 -2.79 -3.86 -4.30 -4.11 -3.43 -2.39 -1.32 -0.39 0.52 0.21 -0.09 -0.59 -1.10 -1.47 -1.71 -1.86 -2.14 -2.60 -3.28 -4.05 -4.61 -4.64 -3.85 -2.09 -32.78 3.69 6.67 8.91 9.97 9.78 8.49 6.50 4.12 1.64 -0.72 -2.76 -4.27 -5.02 -4.95 -4.10 2.37 -1.40 -0.27 0.36 0.51 0.29 -0.08 -0.43 -0.70 -0.91 -1.13 -1.52 -2.07 -2.74 -3.43 -3.94 -19.16 -3.64 -2.51 -0.71 1.59 4.04 6.20 7.68 8.25 7.85 6.63 4.80 2.64 0.45 -1.60 -3.22 15.09 -4.38 -3.70 -2.35 -0.68 0.82 1.74 1.86 1.30 0.39 -0.39 -0.79 -0.82 -0.73 -0.93 -1.57 2.25 -3.80 -4.79 -5.32 -5.19 -4.29 -2.61 -0.21 2.60 5.31 7.33 8.23 7.92 6.66 4.90 3.05 23.33 -0.39 -1.95 -3.32 -4.21 -4.41 -3.84 -2.70 -1.36 -0.19 0.57 0.94 1.01 0.97 0.84 0.59 6.06 -0.48 -1.33 -2.32 -3.29 -4.14 -4.65 -4.61 -3.82 -2.15 0.24 2.95 5.40 7.06 7.54 6.91 14.84 3.63 1.74 -0.08 -1.74 -3.24 -4.35 -4.78 -4.33 -2.98 -1.03 0.94 2.41 3.05 2.93 2.32 10.92 0.94 0.35 -0.41 -1.45 -2.75 -4.03 -4.92 -5.12 -4.47 -3.07 -1.09 1.17 3.42 5.41 6.92 9.66 8.19 7.99 7.32 6.11 4.38 2.18 -0.35 -2.82 -4.87 -6.09 -6.24 -5.21 -3.24 -0.76 1.56 20.88 3.40 2.65 1.24 -0.09 -0.81 -0.71 -0.12 0.34 0.00 -1.61 -4.35 -7.60 -10.29 -11.36 -10.15 -25.30 -1.86 3.07 6.86 8.66 8.35 6.43 3.58 0.48 -2.59 -5.44 -7.94 -9.80 -10.67 -10.21 -8.34 -50.09 -1.91 1.31 3.59 4.61 4.35 3.24 1.69 0.16 -1.24 -2.40 -3.43 -4.31 -5.07 -5.75 -6.35 -68.43 -7.01 -6.56 -5.01 -2.10 1.98 6.53 10.47 12.83 13.08 11.45 8.61 5.48 2.72 0.64 -0.79 -17.74 -1.93 -1.52 -0.29 1.63 3.85 5.80 7.08 7.63 7.65 7.49 7.52 7.91 8.67 9.83 11.23 77.46 13.63 13.63 12.10 8.80 4.06 -1.31 -6.14 -9.34 -10.33 -9.22 -6.76 -3.98 -1.76 -0.54 -0.10 80.32 0.68 1.83 3.28 4.46 4.62 3.39 0.85 -2.36 -5.13 -6.30 -4.93 -0.68 5.85 13.22 19.52 141.23 21.03 14.28 3.10 -10.54 -24.13 -35.02 -41.53 -43.12 -40.64 -35.82 -30.50 -26.05 -22.94 -21.10 -20.06 -191.32 -19.25 -19.05 -18.36 -16.39 -12.42 -6.34 1.18 8.78 15.12 19.33 21.60 22.68 23.51 24.58 25.65 -94.66 25.10 22.63 19.03 15.16 11.86 9.67 8.71 8.83 9.83 11.45 13.38 15.13 16.03 15.32 12.58 127.96 2.09 -3.67 -8.11 -10.41 -10.52 -9.04 -6.92 -4.97 -3.50 -2.47 -1.45 -0.12 1.53 3.18 4.32 82.45 3.74 2.08 -0.09 -2.37 -4.44 -6.04 -6.86 -6.56 -4.98 -2.32 0.75 3.16 3.86 2.41 -0.73 59.69 -7.08 -7.86 -6.70 -4.32 -1.87 -0.29 0.09 -0.48 -1.30 -1.62 -0.85 1.07 3.71 6.09 7.19 51.82 3.47 -0.83 -5.77 -10.84 -16.07 -21.70 -27.66 -33.03 -36.30 -35.83 -31.01 -22.60 -12.47 -2.71 5.25 -185.38 14.38 15.81 14.93 11.50 5.84 -0.67 -5.89 -7.79 -5.60 -0.30 5.84 10.21 11.16 8.52 3.46 -106.31 -7.32 -10.72 -12.31 -12.12 -10.24 -6.66 -1.50 4.82 11.28 16.60 19.40 18.89 15.25 9.77 4.20 -66.71 -1.16 0.02 3.38 8.35 14.53 21.84 30.02 38.37 45.53 49.78 49.71 44.92 36.34 25.84 15.51 323.05 0.10 -4.90 -8.68 -11.27 -12.09 -10.47 -6.45 -1.40 2.31 2.40 -2.19 -10.68 -20.77 -29.84 -36.35 132.57 -42.63 -44.97 -47.58 -49.45 -48.87 -44.43 -36.16 -25.67 -15.47 -7.65 -3.16 -1.66 -2.11 -3.44 -4.98 -251.93 -6.87 -6.24 -4.12 -0.74 2.92 5.71 6.68 5.66 3.11 -0.16 -3.37 -5.84 -7.01 -6.20 -2.86 -268.02 11.81 21.97 32.46 41.99 49.54 54.56 56.95 56.72 54.11 49.44 43.24 36.33 29.53 23.39 17.84 324.01 5.42 -2.86 -12.11 -20.74 -26.65 -28.42 -26.16 -21.76 -17.90 -17.15 -20.75 -28.13 -37.11 -44.49 -47.04 -64.49 -31.35 -15.60 0.46 12.61 18.58 19.08 17.57 18.08 23.01 31.40 39.44 42.31 36.98 23.67 5.94 166.47 -23.61 -29.62 -30.41 -28.98 -28.21 -29.54 -32.38 -34.79 -34.62 -30.68 -23.18 -13.56 -3.74 4.76 11.17 -145.46 17.91 18.59 17.16 13.14 6.47 -2.13 -11.13 -18.80 -23.86 -25.95 -25.44 -22.88 -18.52 -12.21 -3.87 -231.11 15.53 23.32 28.09 30.09 30.90 32.53 36.25 41.88 47.62 51.24 50.91 46.04 37.44 26.75 15.66 288.58 -3.53 -11.26 -17.87 -23.12 -26.66 -28.14 -27.85 -26.85 -26.63 -28.64 -33.64 -41.14 -49.27 -55.08 -55.39 -214.47 -32.54 -11.18 12.28 33.64 49.94 60.26 65.53 67.08 65.34 59.34 47.74 30.23 8.95 -11.94 -27.88 166.26 -36.77 -33.03 -29.05 -27.96 -30.78 -36.05 -40.89 -42.48 -39.07 -30.60 -18.48 -5.02 7.46 17.42 24.35 -126.07 30.76 30.89 28.77 24.40 18.62 13.45 11.49 14.45 22.17 32.18 40.75 44.48 41.69 32.95 20.36 287.71 -7.11 -19.13 -29.10 -36.38 -40.07 -39.40 -34.16 -25.24 -14.37 -3.63 5.24 11.11 13.48 12.11 7.07 86.91 -11.61 -22.17 -30.50 -34.40 -32.48 -24.78 -12.85 0.67 12.66 20.49 22.74 19.65 13.03 5.51 -0.31 9.56 -2.39 0.33 3.42 5.51 5.98 4.93 2.86 0.02 -3.54 -7.91 -12.80 -17.38 -20.47 -21.21 -19.39 -88.30 -11.83 -8.74 -7.25 -7.21 -7.72 -7.57 -5.63 -1.35 4.86 11.71 17.25 19.81 18.82 15.44 12.24 -33.60 16.03 24.44 34.96 44.81 51.43 53.40 50.40 42.88 31.71 18.09 3.68 -9.45 -19.17 -24.07 -24.14 240.46 -17.03 -14.95 -16.31 -21.16 -28.20 -35.30 -40.38 -42.09 -40.23 -35.64 -29.89 -24.49 -20.71 -18.96 -19.06 -184.16 -21.39 -21.54 -19.96 -16.27 -10.61 -3.60 3.75 10.03 13.84 14.18 10.82 4.70 -2.09 -6.92 -7.48 -239.45 6.13 16.01 22.73 22.71 14.33 -1.36 -20.90 -39.58 -52.55 -56.36 -49.69 -33.76 -12.03 10.88 30.57 -338.16 50.93 51.90 49.06 44.32 39.20 34.86 32.44 32.62 34.99 37.44 36.78 30.02 16.45 -1.32 -18.21 104.61 -29.39 -20.38 -5.26 10.87 23.48 30.18 30.78 26.54 18.82 8.55 -3.61 -16.39 -27.26 -32.96 -30.80 67.21 -5.38 9.06 16.84 14.52 2.96 -12.77 -25.76 -30.46 -25.08 -12.32 2.28 12.97 16.14 11.64 2.33 36.45 -14.84 -17.15 -15.04 -10.41 -5.66 -2.31 -0.30 1.89 6.30 14.12 24.46 34.26 39.45 37.14 27.48 169.97 2.65 -2.19 1.12 10.12 19.91 25.55 24.40 16.82 5.20 -7.69 -20.05 -31.09 -40.18 -46.08 -46.83 40.80 -28.19 -11.42 5.43 18.46 25.62 27.53 26.81 26.10 26.32 26.28 23.19 14.86 0.98 -16.12 -32.64 129.19 -50.44 -49.21 -42.58 -32.91 -22.71 -14.29 -9.65 -10.08 -15.86 -25.52 -36.03 -43.72 -45.71 -41.30 -32.01 -363.46 -9.82 -1.01 5.58 10.30 13.30 14.24 12.88 9.75 6.48 5.01 6.42 10.43 15.46 19.76 22.62 -197.53 26.72 30.00 34.25 38.32 40.92 41.11 39.13 36.03 33.39 32.43 33.65 36.43 39.37 40.76 39.29 378.71 26.44 15.99 4.02 -8.47 -20.13 -29.41 -35.03 -36.80 -35.70 -33.41 -31.50 -30.43 -29.50 -27.55 -23.94 64.36 -13.59 -9.19 -6.65 -6.65 -9.48 -15.03 -22.19 -28.65 -31.35 -28.01 -18.37 -4.58 9.81 21.55 29.19 -35.71 34.31 33.03 28.62 20.44 9.37 -1.64 -8.43 -7.89 0.12 12.14 22.56 26.11 20.38 6.67 -10.92 121.69 -39.31 -45.10 -45.38 -41.59 -34.95 -26.09 -15.52 -4.18 6.20 13.64 16.64 15.05 10.19 4.20 -1.00 -70.04 -6.75 -8.68 -11.24 -14.52 -17.72 -19.68 -19.68 -17.79 -14.97 -12.38 -11.01 -11.11 -12.28 -13.40 -13.05 -284.12 -2.74 7.99 20.89 33.09 41.20 42.68 37.15 26.86 15.97 8.68 7.38 11.49 18.09 23.57 25.69 58.33 21.76 20.02 20.43 22.45 24.08 23.30 19.29 12.79 5.54 -0.83 -5.71 -9.54 -12.93 -15.99 -18.02 146.98 -15.20 -10.24 -4.67 -0.51 0.62 -1.86 -7.29 -14.40 -21.74 -28.27 -33.41 -37.07 -39.70 -41.83 -43.75 -197.27 -43.85 -38.48 -27.23 -10.35 9.65 28.43 41.54 46.17 42.48 33.31 22.72 14.07 8.63 5.85 4.28 -57.13 1.90 2.13 4.28 8.03 12.11 14.93 15.53 14.21 12.23 10.95 11.00 12.01 12.82 12.31 9.84 102.86 0.84 -3.80 -7.52 -10.00 -11.29 -11.38 -10.20 -7.67 -3.88 0.70 5.35 9.37 12.14 13.37 13.08 103.31 8.47 4.76 0.70 -3.21 -6.48 -8.66 -9.61 -9.47 -8.39 -6.74 -4.80 -2.85 -1.23 -0.16 0.18 55.65 -1.02 -2.04 -3.06 -3.99 -4.91 -6.04 -7.36 -8.76 -9.94 -10.65 -10.60 -9.62 -7.52 -4.29 -0.02 -29.42 9.24 12.45 13.70 12.83 10.38 7.35 4.65 2.79 1.67 0.81 -0.22 -1.55 -2.91 -3.94 -4.38 29.01 -4.50 -4.98 -5.91 -7.03 -7.91 -8.15 -7.82 -7.17 -6.51 -5.99 -5.45 -4.58 -3.11 -1.10 1.12 -47.03 4.29 4.77 4.91 5.38 6.93 9.96 14.39 19.48 23.98 26.42 25.59 20.87 12.47 1.55 -9.95 104.13 -26.36 -28.49 -26.47 -21.56 -15.42 -9.63 -5.14 -2.27 -0.96 -0.87 -1.71 -3.10 -4.51 -5.38 -5.12 -56.48 -1.17 1.58 3.88 5.22 5.44 4.67 3.22 1.50 -0.06 -0.91 -0.59 1.13 4.08 7.63 10.95 3.29 13.95 13.25 11.46 9.06 6.36 3.55 0.64 -2.16 -4.58 -6.20 -6.85 -6.54 -5.65 -4.63 -3.86 17.65 -3.25 -3.02 -2.60 -1.95 -1.23 -0.67 -0.41 -0.46 -0.80 -1.42 -2.36 -3.72 -5.36 -6.88 -7.58 -30.87 -4.25 -0.16 4.58 8.81 11.50 12.16 11.03 8.79 6.30 4.15 2.60 1.54 0.69 -0.09 -0.73 35.02 -0.64 0.70 2.79 5.20 7.09 7.75 6.78 4.46 1.42 -1.48 -3.63 -4.77 -4.98 -4.53 -3.75 44.35 -3.12 -4.55 -7.84 -12.87 -18.85 -24.43 -28.26 -29.54 -28.37 -25.46 -21.79 -17.86 -13.71 -8.92 -3.17 -200.94 10.22 16.09 19.98 21.41 20.55 18.22 15.54 13.37 12.16 11.76 11.68 11.40 10.61 9.25 7.48 14.35 3.67 1.82 0.01 -1.80 -3.56 -5.17 -6.51 -7.36 -7.54 -6.82 -5.12 -2.49 0.75 4.19 7.39 -4.18 11.97 13.31 14.01 13.93 12.77 10.22 6.35 1.57 -3.29 -7.39 -10.12 -11.35 -11.39 -10.77 -9.95 6.47 -8.51 -7.68 -6.48 -4.91 -3.09 -1.34 0.05 0.89 1.17 1.01 0.56 -0.12 -0.96 -1.81 -2.38 -29.37 -1.01 1.33 4.34 7.27 9.35 10.05 9.38 7.74 5.61 3.44 1.37 -0.56 -2.33 -3.85 -4.90 12.41 -5.39 -4.90 -4.10 -3.14 -2.18 -1.36 -0.70 -0.29 -0.08 0.01 0.00 -0.13 -0.45 -1.08 -2.04 -16.68 -4.56 -5.68 -6.32 -6.21 -5.12 -3.07 -0.34 2.62 5.06 6.33 5.93 3.80 0.32 -3.69 -7.10 -43.68 -8.52 -5.53 -0.45 5.72 11.64 15.90 17.46 16.00 12.02 6.80 2.01 -0.76 -0.70 2.02 6.23 46.37 12.41 12.02 9.20 4.90 0.45 -3.14 -5.30 -5.97 -5.43 -4.03 -1.98 0.41 2.70 4.38 4.86 75.76 1.74 -1.00 -3.47 -4.93 -5.07 -4.00 -2.20 -0.22 1.37 2.31 2.49 2.08 1.33 0.43 -0.61 64.14 -3.47 -5.41 -7.43 -9.22 -10.40 -10.82 -10.45 -9.49 -8.10 -6.36 -4.40 -2.32 -0.29 1.57 3.29 -14.21 6.82 8.95 11.12 12.85 13.33 11.82 7.86 1.50 -6.46 -14.77 -21.70 -25.73 -26.01 -22.65 -16.94 -85.08 -6.32 -4.49 -5.24 -7.45 -9.47 -10.09 -8.89 -6.38 -3.47 -0.94 1.02 2.66 4.49 6.81 9.68 -110.18 16.54 20.32 24.15 27.67 30.28 31.19 29.84 25.87 19.48 11.30 2.42 -5.97 -12.65 -16.74 -17.86 59.33 -13.03 -9.08 -5.56 -3.11 -1.88 -1.60 -1.84 -2.14 -2.29 -2.30 -2.30 -2.58 -3.23 -4.22 -5.28 -7.24 -6.52 -6.39 -5.78 -4.78 -3.46 -1.78 0.35 2.86 5.48 7.80 9.34 9.76 8.92 7.07 4.59 22.27 -0.17 -1.80 -2.77 -3.13 -3.01 -2.54 -1.86 -1.11 -0.51 -0.17 -0.13 -0.31 -0.53 -0.67 -0.70 2.20 -0.74 -0.99 -1.49 -2.16 -2.89 -3.59 -4.13 -4.35 -4.04 -2.99 -1.09 1.46 4.20 6.56 7.92 1.95 7.03 5.21 3.07 1.00 -0.84 -2.44 -3.77 -4.77 -5.31 -5.24 -4.61 -3.56 -2.37 -1.25 -0.35 -15.92 0.81 1.06 1.00 0.53 -0.34 -1.42 -2.36 -2.83 -2.66 -2.00 -1.13 -0.38 0.17 0.72 1.53 -20.34 4.54 6.12 6.97 6.67 5.21 3.03 0.71 -1.21 -2.53 -3.26 -3.59 -3.63 -3.47 -3.16 -2.75 -13.06 -2.15 -2.13 -2.22 -2.21 -1.95 -1.41 -0.66 0.06 0.54 0.63 0.35 -0.25 -1.01 -1.88 -2.73 -33.44 -3.58 -3.05 -1.60 0.76 3.70 6.70 9.15 10.65 10.97 10.17 8.53 6.42 4.21 2.25 0.76 32.48 -0.43 -0.30 0.09 0.53 0.88 1.07 1.07 0.89 0.59 0.13 -0.40 -0.95 -1.45 -1.90 -2.27 27.43 -2.88 -3.09 -3.24 -3.16 -2.78 -2.02 -0.84 0.57 1.96 3.00 3.42 3.20 2.50 1.62 0.76 26.51 -0.52 -1.10 -1.77 -2.47 -3.02 -3.33 -3.24 -2.81 -2.11 -1.39 -0.84 -0.61 -0.77 -1.25 -1.86 -3.05 -2.94 -3.23 -3.39 -3.49 -3.54 -3.62 -3.70 -3.85 -4.02 -4.25 -4.39 -4.29 -3.65 -2.20 0.19 -50.11 6.69 9.59 11.32 11.50 10.27 8.08 5.54 3.16 1.12 -0.64 -2.22 -3.65 -4.74 -5.23 -4.93 -8.23 -2.62 -1.32 -0.40 -0.02 -0.09 -0.50 -1.05 -1.68 -2.37 -3.06 -3.69 -4.23 -4.62 -4.88 -5.07 -49.01 -4.92 -4.04 -2.29 0.41 3.81 7.36 10.41 12.40 13.09 12.49 10.94 8.83 6.44 3.96 1.52 30.62 -2.70 -3.89 -4.16 -3.45 -2.02 -0.39 0.93 1.61 1.62 1.14 0.45 -0.23 -0.84 -1.37 -1.88 13.02 -3.01 -3.66 -4.41 -5.19 -5.83 -6.09 -5.59 -4.12 -1.67 1.45 4.68 7.39 9.08 9.54 8.90 21.90 5.43 3.21 0.92 -1.31 -3.28 -4.68 -5.26 -4.88 -3.65 -2.00 -0.35 0.80 1.30 1.14 0.61 9.92 -0.36 -0.46 -0.43 -0.48 -0.83 -1.60 -2.72 -3.97 -5.10 -5.84 -5.93 -5.17 -3.52 -1.04 1.93 -20.66 7.49 9.09 9.59 8.98 7.52 5.52 3.27 0.99 -1.13 -2.96 -4.35 -5.18 -5.30 -4.65 -3.33 3.25 -0.01 1.14 1.57 1.27 0.56 -0.12 -0.47 -0.45 -0.35 -0.53 -1.26 -2.54 -4.10 -5.56 -6.55 -20.90 -6.03 -4.39 -1.86 1.31 4.65 7.68 9.83 10.74 10.29 8.70 6.32 3.57 0.88 -1.48 -3.29 21.63 -4.76 -4.43 -3.45 -2.10 -0.65 0.51 1.02 0.82 0.04 -0.90 -1.56 -1.75 -1.46 -1.08 -1.00 -0.55 -2.35 -3.54 -4.64 -5.37 -5.53 -5.08 -3.92 -2.10 0.30 3.01 5.69 7.85 9.15 9.36 8.48 17.45 4.28 1.56 -1.08 -3.19 -4.53 -4.85 -4.28 -3.16 -1.91 -0.96 -0.55 -0.64 -1.03 -1.36 -1.47 -7.04 -1.12 -1.13 -1.59 -2.48 -3.52 -4.25 -4.30 -3.52 -2.10 -0.48 0.94 2.02 2.84 3.61 4.43 -12.36 6.40 7.93 10.34 13.81 17.74 20.82 21.28 17.96 10.93 1.69 -7.32 -13.98 -17.25 -17.51 -16.04 30.20 -12.90 -12.04 -11.23 -10.20 -9.01 -8.09 -7.90 -8.53 -9.57 -10.28 -10.09 -8.86 -7.07 -5.42 -4.23 -108.32 -0.99 3.24 10.01 18.70 27.82 35.75 41.36 44.30 44.76 42.93 38.75 31.98 22.70 11.74 0.63 256.48 -15.38 -18.55 -18.83 -17.41 -15.39 -13.59 -12.35 -11.61 -11.19 -10.86 -10.53 -10.17 -9.83 -9.67 -9.90 50.39 -12.79 -15.76 -19.39 -22.91 -25.35 -25.81 -23.97 -19.99 -14.59 -8.50 -2.36 3.38 8.39 12.29 14.67 -87.03 14.40 12.72 11.20 10.66 11.22 12.56 14.00 15.07 15.62 15.80 15.63 14.80 12.63 8.37 1.73 92.63 -15.81 -23.82 -29.48 -32.37 -32.94 -32.14 -30.86 -29.37 -27.34 -24.21 -19.61 -13.80 -7.48 -1.41 4.06 -214.89 13.97 18.93 23.42 26.49 27.22 25.20 20.91 15.52 10.42 6.63 4.53 3.78 3.79 3.93 3.83 -2.88 2.92 2.39 2.04 1.84 1.73 1.59 1.32 0.91 0.43 -0.03 -0.47 -0.94 -1.49 -2.23 -3.03 0.32 -4.21 -4.23 -3.70 -2.74 -1.38 0.18 1.75 3.12 4.08 4.51 4.44 3.97 3.29 2.43 1.46 13.66 -0.76 -1.76 -2.46 -2.79 -2.76 -2.53 -2.17 -1.73 -1.20 -0.61 -0.02 0.41 0.53 0.38 0.08 -3.95 -0.40 -0.48 -0.51 -0.63 -0.78 -0.90 -0.97 -0.93 -0.73 -0.33 0.34 1.25 2.27 3.12 3.58 3.51 3.15 2.66 2.21 1.86 1.43 0.69 -0.34 -1.46 -2.32 -2.63 -2.31 -1.54 -0.64 0.10 0.58 5.74 0.78 0.61 0.30 -0.17 -0.73 -1.25 -1.61 -1.73 -1.69 -1.61 -1.63 -1.83 -2.16 -2.41 -2.40 -13.83 -1.26 -0.13 1.19 2.56 3.82 4.80 5.38 5.44 5.02 4.22 3.21 2.23 1.39 0.77 0.35 25.24 -0.05 -0.10 -0.08 -0.10 -0.27 -0.64 -1.21 -1.89 -2.47 -2.80 -2.73 -2.33 -1.87 -1.65 -1.90 2.53 -3.51 -4.17 -4.24 -3.59 -2.38 -0.94 0.46 1.66 2.66 3.54 4.27 4.77 4.87 4.46 3.55 16.23 0.89 -0.43 -1.48 -2.11 -2.23 -1.87 -1.12 -0.22 0.58 0.98 0.86 0.27 -0.63 -1.47 -2.03 4.06 -1.91 -1.40 -0.85 -0.44 -0.34 -0.66 -1.34 -2.19 -2.84 -2.74 -1.58 0.74 3.74 6.72 8.78 17.12 8.35 6.21 3.64 1.52 0.26 -0.12 -0.09 -0.31 -1.23 -2.91 -4.86 -6.37 -6.89 -6.27 -4.86 -0.08 -2.26 -2.35 -3.82 -6.65 -10.53 -14.65 -17.71 -18.34 -15.68 -10.11 -3.23 2.44 4.99 3.84 0.17 -97.71 -5.82 -4.92 -1.25 4.19 9.94 14.59 16.77 15.48 10.39 2.35 -6.41 -13.08 -15.35 -12.53 -5.94 -87.21 9.19 14.26 17.11 18.04 16.90 13.06 6.22 -2.55 -10.32 -13.33 -8.89 2.65 17.45 29.54 33.72 83.65 13.52 -4.88 -22.68 -36.50 -44.62 -46.32 -41.16 -28.99 -11.08 9.22 26.74 36.21 34.43 21.82 2.19 -27.39 -36.36 -46.63 -48.81 -44.20 -35.58 -26.26 -18.95 -14.84 -13.25 -12.18 -9.68 -4.86 1.53 7.70 12.00 -303.80 14.52 15.15 17.00 20.14 23.59 26.13 26.98 26.22 24.62 23.17 22.58 22.99 24.02 24.99 25.31 58.23 23.08 21.18 19.62 19.04 19.77 21.80 24.83 28.42 32.03 34.96 36.25 34.87 30.09 21.80 10.77 435.33 -12.94 -22.25 -28.50 -31.69 -32.40 -31.57 -29.96 -27.79 -24.80 -20.28 -13.72 -5.38 3.44 10.70 14.55 197.01 10.84 6.24 2.39 0.05 -1.61 -4.38 -9.86 -18.28 -28.22 -37.05 -42.24 -42.34 -37.73 -30.19 -22.32 -73.91 -12.87 -11.85 -11.80 -11.30 -9.57 -6.88 -4.11 -2.18 -1.50 -1.74 -2.35 -2.77 -2.87 -2.72 -2.36 -162.39 -0.03 2.75 6.84 11.96 17.46 22.62 26.84 29.68 30.89 30.31 27.93 24.01 19.01 13.67 8.67 114.70 1.31 -1.01 -2.63 -3.70 -4.20 -4.10 -3.47 -2.59 -1.86 -1.65 -2.09 -2.99 -4.00 -4.82 -5.30 66.10 -5.61 -5.87 -6.48 -7.50 -8.84 -10.17 -10.94 -10.58 -8.66 -5.25 -0.92 3.44 6.90 8.90 9.32 22.30 6.75 4.52 2.02 -0.61 -3.07 -5.03 -6.01 -5.85 -4.55 -2.59 -0.57 0.93 1.65 1.66 1.27 13.67 0.62 0.53 0.39 0.01 -0.72 -1.76 -3.01 -4.30 -5.41 -6.08 -6.01 -4.95 -2.82 0.13 3.40 -9.97 8.40 9.32 9.11 8.07 6.56 4.86 3.09 1.34 -0.35 -1.83 -2.90 -3.37 -3.16 -2.42 -1.39 24.89 0.09 0.21 -0.04 -0.41 -0.74 -0.96 -1.16 -1.45 -1.95 -2.66 -3.47 -4.27 -4.88 -5.18 -4.97 -11.05 -2.43 -0.01 2.91 5.86 8.27 9.69 9.90 8.94 7.15 4.93 2.61 0.46 -1.40 -2.80 -3.61 35.73 -3.12 -2.17 -1.37 -1.19 -1.94 -3.47 -5.30 -6.81 -7.51 -7.35 -6.60 -5.70 -5.03 -4.71 -4.61 -35.70 -4.44 -4.28 -4.11 -3.89 -3.35 -2.18 -0.14 2.73 6.01 9.09 11.26 12.12 11.59 9.98 7.77 17.88 3.28 1.49 0.05 -1.05 -1.82 -2.20 -2.18 -1.75 -1.04 -0.20 0.58 1.10 1.27 1.07 0.56 16.90 -0.84 -1.47 -1.94 -2.28 -2.52 -2.73 -2.94 -3.18 -3.52 -3.99 -4.56 -5.02 -5.03 -4.21 -2.38 -29.32 3.58 6.53 8.55 9.29 8.71 7.18 5.17 3.15 1.36 -0.04 -1.07 -1.83 -2.31 -2.55 -2.52 11.68 -1.64 -0.89 -0.14 0.44 0.67 0.50 -0.03 -0.70 -1.36 -1.84 -2.12 -2.26 -2.34 -2.44 -2.56 -7.75 -2.93 -3.24 -3.61 -3.93 -3.92 -3.27 -1.79 0.42 3.05 5.52 7.33 8.13 7.90 6.87 5.36 17.88 2.21 0.86 -0.32 -1.30 -2.06 -2.48 -2.49 -2.11 -1.46 -0.73 -0.14 0.27 0.50 0.72 1.00 11.59 1.32 1.06 0.41 -0.48 -1.32 -1.88 -2.01 -1.79 -1.40 -1.11 -1.08 -1.36 -1.82 -2.19 -2.18 -5.74 0.01 2.32 5.06 7.77 9.83 10.65 9.96 7.79 4.60 1.04 -2.08 -4.13 -4.74 -3.89 -1.91 37.16 3.15 5.12 6.26 6.57 6.21 5.56 4.98 4.86 5.46 6.78 8.41 9.32 8.19 3.79 -4.13 103.18 -24.90 -32.38 -34.82 -31.86 -25.16 -17.54 -11.63 -8.71 -8.50 -10.02 -12.38 -15.66 -20.37 -26.86 -34.32 -252.91 -44.70 -44.08 -39.07 -30.72 -20.39 -8.94 3.53 17.23 31.91 46.51 59.18 68.01 71.79 70.49 65.10 50.18 48.39 39.51 31.02 23.01 15.58 8.93 3.35 -0.98 -4.21 -6.78 -9.23 -11.91 -14.84 -17.68 -20.10 112.42 -22.79 -23.21 -23.15 -22.70 -21.74 -20.18 -17.89 -14.99 -11.86 -9.13 -7.52 -7.55 -9.17 -11.55 -13.46 -138.07 -11.29 -6.81 -1.29 3.79 7.32 9.03 9.45 9.44 9.72 10.60 12.18 14.55 17.89 22.26 27.21 27.61 34.15 33.60 29.72 23.30 15.70 8.27 1.77 -3.64 -8.13 -11.86 -14.75 -16.75 -17.99 -18.72 -19.07 44.43 -17.32 -14.10 -9.07 -2.90 3.20 7.91 10.43 10.68 9.18 6.68 3.90 1.14 -1.45 -3.87 -6.02 35.13 -8.59 -8.53 -7.54 -5.93 -4.21 -2.98 -2.62 -3.26 -4.65 -6.28 -7.49 -7.80 -6.90 -4.82 -1.86 -46.85 4.62 7.08 8.58 9.06 8.65 7.62 6.19 4.55 2.78 0.97 -0.71 -1.98 -2.53 -2.13 -0.80 6.21 3.08 4.49 4.91 4.36 3.15 1.90 1.12 1.13 1.82 2.76 3.42 3.42 2.60 1.17 -0.47 43.35 -2.01 -0.78 2.18 6.62 11.69 16.00 18.02 16.57 11.30 2.91 -7.05 -16.71 -24.57 -29.89 -32.77 -19.08 -34.24 -34.33 -34.43 -34.46 -34.12 -33.04 -31.00 -27.86 -23.53 -17.84 -10.41 -0.90 10.94 24.73 39.34 -207.24 63.58 69.43 69.84 65.31 57.12 46.98 36.31 26.15 17.15 9.65 3.68 -1.09 -5.33 -9.68 -14.30 208.88 -21.89 -23.16 -22.37 -20.31 -18.02 -16.22 -14.70 -12.56 -9.07 -4.19 1.17 5.69 8.51 9.86 10.67 93.95 12.56 12.02 8.52 1.57 -7.54 -16.07 -21.22 -21.54 -17.73 -12.11 -7.37 -5.18 -5.63 -7.61 -9.62 -13.79 -11.14 -11.24 -11.91 -13.63 -16.66 -20.88 -26.00 -31.42 -36.35 -39.93 -41.21 -39.57 -34.80 -27.10 -17.06 -398.24 6.35 17.58 27.14 34.41 38.97 40.85 40.30 37.79 33.93 29.39 24.82 20.77 17.49 14.99 12.99 10.74 9.38 7.46 5.51 3.64 1.85 0.19 -1.30 -2.32 -2.58 -1.74 0.17 2.78 5.38 7.21 7.77 61.13 5.23 3.10 1.16 -0.25 -1.14 -1.71 -2.16 -2.62 -2.98 -3.10 -2.84 -2.28 -1.63 -1.13 -1.00 46.57 -1.66 -2.10 -2.43 -2.60 -2.67 -2.78 -2.95 -3.21 -3.51 -3.82 -4.17 -4.52 -4.84 -4.86 -4.29 -6.69 -0.46 2.62 5.84 8.56 10.25 10.69 10.02 8.60 6.75 4.65 2.24 -0.60 -3.79 -7.04 -9.81 30.25 -12.08 -11.32 -9.70 -7.65 -5.59 -3.79 -2.34 -1.21 -0.40 0.14 0.47 0.67 0.79 0.90 0.94 -19.04 0.57 0.00 -0.76 -1.39 -1.54 -0.83 0.86 3.27 5.79 7.70 8.50 8.02 6.58 4.72 2.85 26.54 -0.16 -1.41 -2.54 -3.43 -3.79 -3.50 -2.59 -1.28 0.03 1.01 1.48 1.40 0.95 0.39 -0.13 12.51 -0.67 -0.85 -1.14 -1.59 -2.17 -2.81 -3.41 -3.85 -4.08 -3.99 -3.46 -2.41 -0.81 1.21 3.42 -8.67 6.87 7.49 7.21 6.13 4.50 2.66 0.86 -0.69 -1.93 -2.79 -3.27 -3.34 -2.98 -2.24 -1.27 8.20 0.31 0.49 0.16 -0.52 -1.29 -1.91 -2.19 -2.09 -1.73 -1.29 -1.01 -1.03 -1.45 -2.22 -3.16 -14.75 -4.47 -4.20 -3.05 -1.06 1.51 4.19 6.51 8.10 8.72 8.38 7.26 5.55 3.52 1.45 -0.45 25.26 -2.87 -3.21 -3.01 -2.46 -1.77 -1.07 -0.51 -0.09 0.17 0.23 0.14 -0.13 -0.50 -0.94 -1.36 6.20 -1.89 -1.97 -2.02 -2.08 -2.27 -2.63 -3.11 -3.55 -3.62 -3.06 -1.69 0.39 2.79 5.02 6.60 0.36 6.92 5.81 4.22 2.42 0.68 -0.88 -2.14 -3.06 -3.56 -3.59 -3.18 -2.36 -1.32 -0.26 0.59 1.66 0.99 0.56 -0.04 -0.59 -0.94 -1.08 -1.07 -1.11 -1.26 -1.61 -2.11 -2.68 -3.17 -3.49 -3.46 -22.33 -1.82 -0.12 1.96 4.09 5.89 6.93 7.08 6.38 5.06 3.43 1.75 0.12 -1.39 -2.67 -3.62 6.71 -3.80 -3.00 -1.84 -0.62 0.38 1.01 1.27 1.19 0.89 0.39 -0.22 -0.89 -1.43 -1.83 -2.01 -5.91 -2.22 -2.45 -2.81 -3.12 -3.17 -2.71 -1.61 0.12 2.22 4.32 6.00 6.92 6.95 6.17 4.86 16.84 1.63 0.03 -1.47 -2.75 -3.69 -4.06 -3.79 -2.94 -1.77 -0.64 0.12 0.39 0.24 -0.12 -0.47 -3.13 -0.74 -0.76 -0.85 -1.04 -1.35 -1.75 -2.23 -2.77 -3.27 -3.54 -3.36 -2.49 -0.93 1.18 3.45 -18.12 6.82 7.39 7.14 6.24 4.89 3.28 1.64 0.07 -1.30 -2.36 -3.03 -3.24 -2.93 -2.19 -1.18 2.92 0.50 0.73 0.56 0.15 -0.26 -0.53 -0.66 -0.79 -1.09 -1.56 -2.14 -2.69 -3.13 -3.47 -3.72 -18.97 -3.50 -2.58 -0.90 1.37 3.78 5.79 7.01 7.23 6.62 5.50 4.13 2.72 1.25 -0.24 -1.68 14.68 -3.55 -3.60 -3.03 -2.01 -0.88 0.08 0.66 0.80 0.62 0.27 -0.10 -0.45 -0.76 -1.06 -1.33 -1.24 -1.80 -2.06 -2.44 -2.93 -3.45 -3.74 -3.45 -2.37 -0.54 1.77 4.06 5.80 6.70 6.71 6.00 11.86 3.49 2.10 0.74 -0.53 -1.65 -2.52 -3.03 -3.11 -2.78 -2.10 -1.18 -0.25 0.51 0.92 0.90 3.89 -0.03 -0.53 -0.85 -0.99 -1.08 -1.27 -1.63 -2.13 -2.70 -3.19 -3.50 -3.50 -3.03 -1.96 -0.28 -20.91 4.15 6.06 7.20 7.34 6.56 5.10 3.36 1.58 -0.01 -1.37 -2.46 -3.16 -3.43 -3.16 -2.43 3.03 -0.34 0.48 0.88 0.84 0.47 -0.05 -0.54 -0.94 -1.19 -1.31 -1.41 -1.50 -1.69 -2.00 -2.42 -10.57 -3.22 -3.21 -2.63 -1.41 0.42 2.54 4.57 6.12 6.92 6.89 6.10 4.75 2.99 1.08 -0.79 18.21 -3.35 -3.67 -3.34 -2.51 -1.43 -0.33 0.59 1.19 1.38 1.20 0.73 0.15 -0.38 -0.73 -0.88 5.88 -1.09 -1.38 -1.83 -2.36 -2.81 -3.06 -2.99 -2.58 -1.78 -0.66 0.69 2.10 3.42 4.44 5.02 6.07 4.46 3.31 1.68 -0.15 -1.90 -3.30 -4.16 -4.43 -4.15 -3.46 -2.54 -1.54 -0.63 0.06 0.42 -9.80 0.27 0.02 -0.18 -0.24 -0.23 -0.27 -0.47 -0.89 -1.48 -2.14 -2.68 -2.86 -2.53 -1.54 0.06 -22.89 4.15 5.91 7.00 7.24 6.65 5.47 3.94 2.27 0.63 -0.89 -2.17 -3.06 -3.41 -3.18 -2.44 3.83 -0.34 0.45 0.84 0.79 0.45 -0.04 -0.55 -0.95 -1.22 -1.36 -1.47 -1.62 -1.90 -2.35 -2.87 -11.68 -3.59 -3.35 -2.48 -0.89 1.23 3.55 5.59 6.92 7.29 6.72 5.49 3.92 2.29 0.73 -0.68 19.12 -2.92 -3.44 -3.42 -2.84 -1.87 -0.78 0.11 0.66 0.75 0.50 0.04 -0.43 -0.82 -1.07 -1.21 1.08 -1.43 -1.61 -1.87 -2.20 -2.60 -3.04 -3.37 -3.31 -2.63 -1.14 1.02 3.47 5.66 7.06 7.39 9.22 5.37 3.67 1.94 0.36 -1.05 -2.22 -3.07 -3.47 -3.36 -2.75 -1.78 -0.71 0.26 0.91 1.18 5.56 0.65 0.09 -0.51 -1.02 -1.38 -1.65 -1.84 -1.98 -2.15 -2.37 -2.64 -2.92 -3.11 -3.06 -2.58 -22.40 0.19 2.27 4.36 6.01 6.85 6.72 5.78 4.38 2.87 1.54 0.44 -0.54 -1.48 -2.42 -3.16 7.95 -3.16 -2.25 -0.99 0.24 1.11 1.43 1.24 0.71 0.08 -0.52 -1.05 -1.48 -1.86 -2.16 -2.30 -5.31 -2.26 -2.32 -2.59 -2.97 -3.22 -2.97 -1.95 -0.16 2.08 4.23 5.83 6.56 6.46 5.78 4.74 15.48 2.22 0.79 -0.66 -1.97 -2.91 -3.35 -3.28 -2.75 -1.93 -0.94 0.01 0.80 1.23 1.26 0.88 5.08 -0.54 -1.15 -1.52 -1.67 -1.64 -1.62 -1.62 -1.75 -2.04 -2.52 -3.08 -3.47 -3.36 -2.45 -0.67 -22.31 4.20 6.19 7.23 7.22 6.32 4.86 3.19 1.50 -0.03 -1.37 -2.41 -3.09 -3.34 -3.13 -2.52 0.93 -0.52 0.50 1.22 1.49 1.32 0.77 0.10 -0.54 -1.00 -1.29 -1.51 -1.72 -1.96 -2.23 -2.47 -9.60 -2.87 -2.94 -2.82 -2.31 -1.28 0.26 2.16 4.08 5.65 6.51 6.54 5.73 4.32 2.64 0.94 16.47 -1.74 -2.59 -3.11 -3.21 -2.88 -2.10 -1.02 0.12 0.98 1.35 1.20 0.67 0.04 -0.45 -0.68 2.33 -0.76 -0.95 -1.33 -1.87 -2.46 -2.99 -3.37 -3.56 -3.41 -2.78 -1.60 0.12 2.14 4.12 5.68 -4.15 6.54 5.80 4.49 2.87 1.20 -0.30 -1.53 -2.38 -2.87 -2.97 -2.70 -2.11 -1.30 -0.38 0.45 1.67 1.18 1.00 0.56 0.06 -0.40 -0.73 -0.95 -1.14 -1.40 -1.75 -2.20 -2.72 -3.14 -3.33 -3.09 -18.68 -0.93 0.88 2.86 4.64 5.87 6.37 6.11 5.24 3.97 2.52 1.04 -0.37 -1.58 -2.46 -2.86 9.88 -2.12 -1.15 -0.09 0.84 1.45 1.64 1.49 1.13 0.75 0.46 0.29 0.15 -0.13 -0.60 -1.18 11.05 -2.12 -2.22 -2.10 -1.88 -1.64 -1.38 -1.06 -0.64 -0.08 0.55 1.18 1.70 2.02 2.04 1.64 7.81 -0.58 -2.16 -3.66 -4.74 -5.15 -4.84 -3.95 -2.73 -1.46 -0.39 0.34 0.69 0.68 0.45 0.14 -19.63 -0.11 0.09 0.44 0.79 0.97 0.89 0.51 -0.08 -0.72 -1.22 -1.33 -0.90 0.18 1.81 3.66 -9.33 6.41 6.65 6.09 4.93 3.49 2.02 0.66 -0.54 -1.56 -2.33 -2.73 -2.68 -2.18 -1.40 -0.58 7.00 0.42 0.47 0.27 -0.01 -0.34 -0.66 -0.96 -1.23 -1.45 -1.59 -1.70 -1.82 -1.98 -2.17 -2.24 -10.00 -1.25 0.05 1.73 3.45 4.79 5.46 5.34 4.54 3.32 1.95 0.60 -0.62 -1.61 -2.30 -2.60 10.40 -1.91 -1.08 -0.22 0.56 1.14 1.53 1.72 1.74 1.56 1.15 0.61 0.04 -0.36 -0.46 -0.26 16.29 0.50 0.72 0.82 1.06 1.73 3.02 4.87 6.96 8.78 9.87 9.93 8.92 6.93 4.19 1.04 83.64 -4.24 -4.99 -3.91 -1.50 0.87 1.33 -1.61 -8.04 -16.40 -23.80 -27.45 -25.87 -19.52 -10.26 -0.32 -53.53 15.16 18.62 17.96 12.40 2.24 -10.64 -22.99 -31.44 -34.08 -31.29 -25.30 -18.72 -13.13 -8.44 -3.62 -184.63 8.61 14.42 18.12 19.06 17.74 15.32 12.96 11.18 9.68 7.92 5.51 2.79 0.57 -0.28 0.68 -37.21 6.33 9.29 11.34 12.22 11.90 10.51 8.32 5.70 3.36 2.02 2.22 3.88 6.15 7.72 7.46 76.22 0.93 -3.61 -7.34 -9.64 -10.53 -10.48 -10.03 -9.47 -8.83 -8.05 -7.18 -6.33 -5.66 -5.31 -5.20 -35.69 -5.05 -4.66 -3.96 -3.05 -2.09 -1.33 -0.99 -1.22 -1.90 -2.77 -3.46 -3.68 -3.42 -2.87 -2.32 -80.47 -1.91 -1.85 -1.38 -0.16 2.00 4.99 8.42 11.61 13.99 15.04 14.70 13.21 11.16 9.13 7.50 32.39 5.65 4.98 4.20 3.30 2.44 1.78 1.43 1.36 1.42 1.41 1.23 0.91 0.59 0.44 0.51 64.69 0.60 0.15 -0.73 -1.79 -2.64 -2.90 -2.50 -1.67 -0.78 -0.21 -0.08 -0.30 -0.65 -0.94 -1.15 47.78 -1.55 -1.86 -2.16 -2.32 -2.27 -1.97 -1.48 -0.97 -0.60 -0.54 -0.85 -1.49 -2.25 -2.89 -3.23 18.18 -2.79 -2.21 -1.58 -0.96 -0.43 -0.03 0.19 0.22 0.15 0.19 0.59 1.49 2.83 4.36 5.72 32.52 6.99 7.06 7.12 7.37 7.75 8.00 7.85 7.21 6.28 5.30 4.36 3.19 1.28 -1.74 -5.75 94.71 -13.75 -16.13 -17.22 -17.56 -18.00 -19.00 -20.40 -21.63 -22.05 -21.47 -20.11 -18.34 -16.38 -13.99 -10.62 -177.76 0.44 7.60 14.60 20.33 23.92 25.26 24.78 23.36 21.83 20.70 19.83 18.79 17.04 14.45 11.36 94.89 5.91 3.90 1.60 -1.89 -7.10 -13.66 -20.31 -25.40 -27.48 -26.00 -21.26 -14.48 -7.24 -1.23 2.20 -55.31 -1.20 -7.45 -15.23 -22.91 -28.85 -31.61 -30.20 -24.41 -14.83 -2.97 9.10 19.36 26.43 30.14 31.36 -87.11 31.60 32.10 32.49 31.94 29.78 25.95 20.93 15.54 10.71 7.10 5.07 4.59 5.29 6.33 6.64 183.99 0.58 -6.99 -16.93 -27.40 -35.90 -40.07 -38.59 -31.71 -21.18 -9.63 0.47 7.52 11.15 12.00 11.06 7.62 7.14 4.94 2.85 1.11 0.07 -0.05 0.67 1.69 2.18 1.34 -1.17 -4.92 -8.86 -11.59 -12.07 -19.25 -6.85 -3.66 -2.22 -3.36 -6.70 -10.83 -13.98 -14.83 -13.18 -9.75 -5.97 -3.27 -2.63 -4.56 -8.97 -145.26 -22.03 -27.21 -28.40 -23.71 -12.79 2.49 18.42 30.78 36.55 35.15 28.67 20.65 14.42 11.81 12.56 -32.84 17.47 18.70 18.57 17.59 16.18 14.53 12.41 9.74 6.78 4.11 2.41 2.00 2.69 3.89 4.94 124.52 5.08 4.33 3.51 3.08 3.49 4.96 7.27 9.64 10.85 9.62 5.22 -2.09 -11.13 -20.30 -28.32 95.00 -39.68 -43.13 -44.12 -40.66 -30.58 -13.14 9.71 33.39 52.05 60.97 58.38 46.20 28.77 11.06 -3.39 167.60 -18.93 -21.73 -22.66 -22.18 -20.29 -17.01 -12.74 -8.27 -4.50 -2.14 -1.39 -1.93 -2.94 -3.50 -3.00 2.99 0.67 2.28 2.59 1.46 -0.67 -2.95 -4.77 -6.07 -7.36 -9.24 -11.86 -14.74 -16.91 -17.54 -16.24 -111.71 -9.67 -5.89 -2.42 0.65 3.34 5.44 6.63 6.65 5.67 4.25 3.21 3.18 4.31 6.31 8.58 -61.00 11.54 11.63 10.75 9.06 6.78 4.14 1.57 -0.57 -1.96 -2.46 -2.25 -1.64 -0.98 -0.45 -0.10 -15.71 0.57 0.88 0.96 0.65 -0.06 -0.96 -1.72 -2.05 -1.88 -1.40 -0.98 -0.98 -1.45 -2.16 -2.61 -31.13 -0.75 1.71 4.55 7.04 8.53 8.75 7.82 6.15 4.25 2.45 0.92 -0.31 -1.30 -2.07 -2.61 11.16 -2.81 -2.53 -2.12 -1.69 -1.38 -1.35 -1.67 -2.42 -3.51 -4.81 -6.20 -7.53 -8.80 -9.95 -10.89 -67.92 -11.23 -10.05 -7.79 -4.57 -0.77 3.19 7.01 10.38 13.16 15.06 15.87 15.46 14.00 11.99 10.15 23.04 9.21 10.42 12.26 14.19 15.59 16.06 15.31 13.26 10.07 6.06 1.77 -2.25 -5.55 -7.90 -9.36 112.08 -10.42 -10.47 -10.34 -10.07 -9.66 -9.20 -8.71 -8.17 -7.50 -6.55 -5.21 -3.46 -1.55 0.21 1.38 14.10 1.26 0.22 -1.00 -1.98 -2.54 -2.68 -2.59 -2.44 -2.43 -2.57 -2.86 -3.23 -3.59 -3.86 -3.87 -23.70 -3.10 -2.41 -1.67 -1.02 -0.65 -0.75 -1.63 -3.49 -6.38 -9.85 -13.17 -15.49 -16.49 -16.30 -15.51 -145.88 -12.15 -8.07 -1.15 8.36 18.83 27.61 32.34 31.99 27.37 20.72 14.42 10.12 8.07 7.65 7.81 55.92 7.59 6.98 6.19 5.20 3.90 2.10 -0.19 -2.90 -5.70 -8.23 -10.23 -11.58 -12.49 -13.27 -14.25 -6.48 -16.77 -17.48 -17.06 -15.21 -12.09 -8.27 -4.46 -1.32 0.82 1.90 2.12 1.80 1.31 0.99 1.19 -86.94 3.57 5.43 7.29 8.87 10.03 10.91 11.64 12.24 12.50 12.06 10.64 8.22 5.17 2.12 -0.31 31.67 -2.24 -2.01 -1.55 -1.14 -0.87 -0.54 0.22 1.68 3.82 6.39 8.83 10.55 11.22 10.70 9.22 93.06 4.69 2.25 0.00 -1.84 -3.05 -3.52 -3.33 -2.85 -2.51 -2.71 -3.52 -4.73 -5.95 -6.94 -7.57 43.52 -8.27 -8.53 -8.67 -8.59 -8.29 -7.99 -7.94 -8.36 -9.09 -9.68 -9.52 -8.14 -5.49 -2.04 1.40 -61.67 5.29 5.13 3.91 2.10 0.17 -1.57 -2.91 -3.81 -4.23 -4.19 -3.79 -3.16 -2.48 -1.81 -1.11 -74.35 0.98 2.44 4.02 5.48 6.57 7.24 7.55 7.58 7.35 6.71 5.53 3.72 1.51 -0.61 -1.94 -12.18 -0.46 2.16 5.22 7.87 9.50 9.94 9.34 8.08 6.48 4.73 2.92 1.11 -0.56 -1.86 -2.60 46.95 -2.34 -1.62 -0.79 -0.03 0.49 0.71 0.63 0.31 -0.14 -0.57 -0.91 -1.14 -1.32 -1.55 -1.94 34.25 -3.10 -3.60 -3.68 -3.07 -1.66 0.49 3.02 5.46 7.40 8.53 8.82 8.43 7.53 6.33 4.93 83.47 1.71 -0.10 -1.97 -3.78 -5.45 -6.87 -8.05 -8.99 -9.73 -10.25 -10.46 -10.32 -9.75 -8.86 -7.85 -24.26 -6.54 -6.53 -6.91 -7.55 -8.29 -8.86 -8.92 -8.08 -6.01 -2.65 1.70 6.34 10.45 13.31 14.51 -34.16 12.58 10.39 7.96 5.56 3.28 1.20 -0.54 -1.74 -2.23 -1.99 -1.17 -0.18 0.60 0.91 0.74 1.45 -0.27 -0.59 -0.70 -0.67 -0.70 -0.90 -1.30 -1.82 -2.25 -2.37 -1.95 -0.93 0.61 2.40 4.10 -0.57 5.89 5.75 5.07 4.02 2.74 1.31 -0.30 -2.00 -3.63 -4.87 -5.48 -5.34 -4.52 -3.24 -1.86 -7.62 0.41 1.14 1.60 1.80 1.70 1.32 0.65 -0.18 -1.09 -2.01 -2.85 -3.45 -3.55 -2.95 -1.51 -16.02 2.89 4.90 6.22 6.64 6.33 5.51 4.39 3.11 1.66 0.11 -1.33 -2.42 -2.92 -2.70 -1.95 13.43 -0.16 0.29 0.33 0.10 -0.21 -0.45 -0.61 -0.75 -1.01 -1.48 -2.20 -3.11 -4.03 -4.75 -5.01 -14.18 -3.27 -1.23 1.22 3.64 5.55 6.62 6.84 6.34 5.35 4.06 2.56 0.95 -0.62 -1.96 -2.82 15.92 -2.90 -2.36 -1.73 -1.20 -0.86 -0.71 -0.69 -0.78 -0.95 -1.11 -1.25 -1.36 -1.54 -1.87 -2.43 -8.93 -3.67 -3.73 -2.99 -1.41 0.82 3.17 5.08 6.18 6.34 5.76 4.79 3.69 2.60 1.48 0.27 18.51 -1.99 -2.65 -2.79 -2.45 -1.82 -1.18 -0.65 -0.33 -0.17 -0.14 -0.17 -0.27 -0.45 -0.68 -1.04 0.19 -2.20 -2.98 -3.70 -4.11 -3.96 -3.06 -1.47 0.61 2.74 4.54 5.63 5.95 5.60 4.79 3.79 15.05 1.55 0.36 -0.83 -1.81 -2.33 -2.27 -1.71 -0.91 -0.21 0.14 0.09 -0.23 -0.60 -0.85 -0.94 3.56 -0.92 -1.06 -1.42 -2.02 -2.82 -3.67 -4.34 -4.52 -4.03 -2.75 -0.83 1.42 3.58 5.24 6.17 -2.06 5.94 5.14 4.13 2.92 1.56 0.10 -1.24 -2.20 -2.56 -2.31 -1.65 -0.92 -0.37 -0.14 -0.16 5.95 -0.29 -0.31 -0.39 -0.64 -1.06 -1.58 -2.11 -2.59 -3.02 -3.41 -3.74 -3.87 -3.55 -2.60 -0.98 -23.06 3.33 5.17 6.28 6.57 6.15 5.28 4.19 3.05 1.91 0.79 -0.33 -1.31 -2.02 -2.28 -2.06 10.21 -0.64 0.11 0.52 0.52 0.12 -0.48 -1.09 -1.54 -1.77 -1.76 -1.68 -1.58 -1.58 -1.74 -2.08 -7.05 -3.16 -3.64 -3.75 -3.29 -2.13 -0.37 1.72 3.73 5.27 6.14 6.29 5.82 4.95 3.82 2.57 18.21 0.11 -0.82 -1.39 -1.55 -1.37 -0.99 -0.57 -0.26 -0.09 -0.08 -0.11 -0.17 -0.20 -0.25 -0.37 9.49 -0.98 -1.41 -1.80 -2.05 -2.12 -2.04 -1.89 -1.80 -1.79 -1.92 -2.19 -2.50 -2.78 -2.85 -2.53 -22.83 -0.27 1.50 3.30 4.77 5.62 5.75 5.27 4.43 3.46 2.49 1.55 0.67 -0.17 -0.89 -1.34 11.85 -1.22 -0.68 -0.04 0.51 0.81 0.81 0.53 0.12 -0.30 -0.66 -0.90 -1.10 -1.28 -1.51 -1.75 3.28 -1.93 -1.79 -1.53 -1.32 -1.27 -1.45 -1.81 -2.22 -2.54 -2.66 -2.56 -2.17 -1.53 -0.54 0.74 -19.10 3.62 4.71 5.27 5.19 4.60 3.67 2.63 1.63 0.71 -0.10 -0.78 -1.27 -1.49 -1.40 -1.01 6.47 0.21 0.64 0.75 0.54 0.08 -0.43 -0.82 -1.01 -1.00 -0.90 -0.87 -1.01 -1.29 -1.61 -1.83 -3.92 -1.67 -1.39 -1.17 -1.12 -1.25 -1.53 -1.86 -2.15 -2.34 -2.32 -2.00 -1.23 -0.01 1.57 3.20 -14.64 5.31 5.37 4.81 3.85 2.66 1.45 0.27 -0.73 -1.48 -1.86 -1.77 -1.29 -0.55 0.21 0.80 3.55 1.18 0.99 0.68 0.34 0.03 -0.24 -0.50 -0.80 -1.17 -1.53 -1.81 -1.91 -1.81 -1.54 -1.23 -6.80 -1.00 -1.20 -1.53 -1.87 -2.12 -2.16 -1.91 -1.33 -0.43 0.75 2.08 3.38 4.45 5.05 5.06 4.87 3.31 1.89 0.47 -0.73 -1.53 -1.91 -1.90 -1.61 -1.12 -0.58 -0.08 0.28 0.49 0.54 0.54 3.44 0.48 0.38 0.14 -0.28 -0.87 -1.50 -1.99 -2.23 -2.15 -1.81 -1.32 -0.82 -0.47 -0.36 -0.57 -11.05 -1.85 -2.52 -2.83 -2.54 -1.50 0.15 2.03 3.72 4.81 5.13 4.75 3.87 2.77 1.67 0.67 7.09 -0.88 -1.37 -1.64 -1.61 -1.32 -0.85 -0.27 0.24 0.58 0.68 0.58 0.38 0.16 -0.03 -0.20 1.13 -0.73 -1.11 -1.52 -1.85 -2.03 -2.06 -1.92 -1.68 -1.41 -1.20 -1.14 -1.28 -1.55 -1.74 -1.59 -22.56 0.37 1.93 3.41 4.53 5.05 5.00 4.50 3.72 2.75 1.66 0.53 -0.48 -1.24 -1.59 -1.48 5.05 -0.48 0.00 0.23 0.23 0.08 -0.06 -0.13 -0.10 -0.08 -0.16 -0.40 -0.74 -1.06 -1.27 -1.27 -1.33 -1.01 -0.86 -0.75 -0.68 -0.68 -0.76 -0.98 -1.32 -1.62 -1.61 -1.09 0.00 1.46 2.90 3.91 -0.22 3.79 2.88 1.82 0.86 0.14 -0.33 -0.64 -0.80 -0.83 -0.69 -0.41 -0.04 0.28 0.48 0.53 7.28 0.33 0.17 0.01 -0.22 -0.50 -0.84 -1.16 -1.39 -1.50 -1.48 -1.45 -1.53 -1.82 -2.30 -2.87 -12.50 -3.11 -2.34 -0.97 0.73 2.35 3.53 4.06 3.96 3.45 2.76 2.06 1.37 0.67 -0.08 -0.83 3.61 -1.94 -2.11 -1.98 -1.64 -1.15 -0.66 -0.21 0.15 0.43 0.64 0.82 0.97 0.99 0.83 0.38 -1.19 -1.12 -1.87 -2.43 -2.77 -2.92 -2.92 -2.70 -2.11 -1.09 0.35 2.01 3.56 4.69 5.23 5.19 4.52 3.63 2.36 0.91 -0.55 -1.79 -2.59 -2.86 -2.60 -1.96 -1.10 -0.24 0.52 1.02 1.24 1.13 2.43 0.35 -0.07 -0.31 -0.43 -0.50 -0.67 -1.02 -1.52 -2.07 -2.54 -2.72 -2.48 -1.67 -0.31 1.46 -8.72 4.94 5.90 6.12 5.65 4.71 3.55 2.32 1.11 0.00 -0.91 -1.46 -1.60 -1.38 -0.95 -0.45 18.84 0.45 0.94 1.45 1.93 2.27 2.36 2.25 2.02 1.81 1.67 1.58 1.51 1.46 1.45 1.63 45.73 2.97 4.19 5.67 7.15 8.42 9.28 9.59 9.17 7.78 5.22 1.36 -3.54 -8.88 -13.72 -17.12 54.84 -17.62 -15.15 -11.85 -8.56 -5.82 -3.83 -2.48 -1.55 -1.00 -0.92 -1.51 -2.77 -4.41 -5.96 -6.90 -42.68 -7.12 -7.19 -7.67 -8.24 -8.23 -6.94 -4.23 -0.70 2.66 4.97 6.04 6.26 6.22 6.23 6.03 -49.51 2.96 -0.15 -3.56 -6.47 -8.30 -8.97 -8.72 -7.79 -6.28 -4.17 -1.58 0.94 2.72 3.08 1.96 -94.01 -2.41 -3.91 -4.27 -3.57 -2.18 -0.44 1.66 4.26 7.43 10.91 14.07 16.22 16.89 16.05 14.18 2.78 9.77 8.01 6.53 5.08 3.44 1.64 -0.14 -1.62 -2.51 -2.64 -1.92 -0.51 1.26 2.99 4.24 41.21 4.78 4.43 4.03 3.70 3.28 2.46 1.03 -1.00 -3.32 -5.49 -7.02 -7.68 -7.34 -6.17 -4.27 20.72 0.58 2.87 4.55 5.33 5.07 3.88 2.04 0.00 -1.84 -3.18 -3.92 -4.15 -4.03 -3.73 -3.34 18.03 -2.23 -1.57 -0.98 -0.62 -0.57 -0.90 -1.46 -2.07 -2.53 -2.70 -2.57 -2.24 -1.87 -1.65 -1.68 -9.62 -2.52 -3.05 -3.30 -2.97 -1.91 -0.11 2.17 4.47 6.33 7.39 7.48 6.69 5.23 3.38 1.40 20.65 -1.85 -2.76 -3.08 -2.90 -2.38 -1.72 -1.07 -0.53 -0.15 0.09 0.14 0.02 -0.22 -0.52 -0.80 1.92 -1.17 -1.38 -1.67 -2.00 -2.32 -2.47 -2.37 -2.02 -1.56 -1.22 -1.20 -1.61 -2.29 -2.91 -3.04 -29.63 -0.69 1.66 4.23 6.46 7.84 8.17 7.47 6.04 4.25 2.44 0.82 -0.51 -1.55 -2.26 -2.57 9.77 -1.75 -0.79 0.25 1.08 1.49 1.48 1.15 0.72 0.25 -0.18 -0.59 -1.00 -1.36 -1.58 -1.63 5.75 -1.48 -1.47 -1.61 -1.86 -2.11 -2.25 -2.23 -2.03 -1.76 -1.53 -1.43 -1.58 -1.92 -2.38 -2.74 -25.34 -2.07 -0.72 1.23 3.50 5.64 7.21 7.94 7.72 6.68 5.12 3.34 1.60 0.04 -1.28 -2.30 15.41 -3.01 -2.53 -1.58 -0.44 0.54 1.04 0.93 0.42 -0.23 -0.69 -0.87 -0.82 -0.72 -0.79 -1.08 4.06 -1.99 -2.37 -2.57 -2.59 -2.44 -2.24 -2.04 -1.92 -1.96 -2.13 -2.37 -2.52 -2.31 -1.53 -0.07 -24.99 4.37 6.59 8.23 8.94 8.63 7.44 5.69 3.73 1.87 0.29 -0.95 -1.76 -2.17 -2.18 -1.81 20.78 -0.33 0.39 0.84 0.91 0.65 0.17 -0.34 -0.75 -1.01 -1.21 -1.42 -1.73 -2.10 -2.43 -2.63 7.16 -2.44 -2.15 -1.90 -1.78 -1.86 -2.04 -2.23 -2.33 -2.25 -2.00 -1.68 -1.41 -1.36 -1.68 -2.32 -25.41 -3.79 -3.83 -2.97 -1.06 1.64 4.59 7.17 8.85 9.37 8.78 7.37 5.52 3.52 1.63 -0.04 19.99 -2.22 -2.56 -2.42 -1.88 -1.17 -0.46 0.13 0.54 0.82 0.92 0.85 0.55 0.06 -0.53 -1.01 10.35 -1.28 -1.20 -1.19 -1.37 -1.75 -2.14 -2.37 -2.37 -2.15 -1.85 -1.64 -1.62 -1.85 -2.28 -2.81 -20.73 -3.28 -2.77 -1.55 0.37 2.66 4.95 6.72 7.65 7.57 6.58 4.99 3.20 1.50 0.12 -0.88 15.57 -1.92 -2.06 -1.96 -1.57 -0.97 -0.26 0.44 0.97 1.23 1.20 0.90 0.42 -0.11 -0.64 -1.06 8.84 -1.54 -1.69 -1.87 -2.06 -2.28 -2.44 -2.43 -2.22 -1.84 -1.43 -1.12 -0.99 -1.11 -1.44 -1.88 -19.88 -2.82 -3.06 -2.92 -2.16 -0.64 1.54 4.05 6.36 7.93 8.37 7.69 6.17 4.23 2.29 0.55 16.80 -2.03 -2.78 -3.00 -2.64 -1.73 -0.52 0.59 1.30 1.43 1.09 0.54 0.08 -0.14 -0.16 -0.18 8.26 -0.90 -1.66 -2.45 -3.05 -3.29 -3.14 -2.69 -2.16 -1.71 -1.46 -1.46 -1.70 -2.05 -2.37 -2.41 -26.19 -0.82 0.93 3.06 5.16 6.79 7.61 7.49 6.55 5.02 3.18 1.34 -0.34 -1.68 -2.62 -3.10 9.26 -2.71 -1.99 -1.11 -0.22 0.49 0.91 1.03 0.86 0.54 0.18 -0.14 -0.39 -0.67 -1.04 -1.50 1.47 -2.46 -2.66 -2.60 -2.32 -1.95 -1.64 -1.52 -1.63 -1.94 -2.39 -2.85 -3.10 -2.97 -2.19 -0.73 -30.11 3.75 5.98 7.63 8.35 8.10 7.00 5.34 3.48 1.62 -0.03 -1.41 -2.42 -3.01 -3.09 -2.66 6.71 -0.80 0.12 0.68 0.82 0.60 0.24 -0.07 -0.23 -0.25 -0.27 -0.48 -0.94 -1.60 -2.29 -2.85 -3.68 -2.92 -2.47 -1.97 -1.59 -1.53 -1.82 -2.31 -2.81 -3.01 -2.67 -1.66 0.05 2.26 4.61 6.66 -6.88 8.28 7.57 6.05 4.08 2.11 0.38 -0.98 -1.89 -2.41 -2.55 -2.33 -1.79 -1.00 -0.20 0.46 9.70 0.82 0.61 0.32 0.07 -0.12 -0.34 -0.65 -1.17 -1.84 -2.51 -2.99 -3.13 -2.87 -2.32 -1.68 -9.27 -0.99 -1.17 -1.65 -2.26 -2.79 -3.02 -2.71 -1.72 -0.02 2.19 4.54 6.53 7.74 7.92 7.14 16.11 3.81 1.89 0.11 -1.41 -2.57 -3.27 -3.44 -3.08 -2.31 -1.34 -0.41 0.30 0.73 0.88 0.82 7.50 0.44 0.15 -0.29 -0.88 -1.60 -2.30 -2.82 -2.98 -2.74 -2.22 -1.66 -1.28 -1.25 -1.55 -2.00 -17.87 -2.46 -2.06 -1.16 0.21 1.89 3.70 5.31 6.48 6.99 6.79 5.95 4.64 3.03 1.33 -0.34 20.69 -2.77 -3.26 -3.19 -2.65 -1.80 -0.89 -0.10 0.45 0.72 0.79 0.67 0.41 0.01 -0.54 -1.18 5.50 -2.42 -2.73 -2.70 -2.36 -1.90 -1.54 -1.49 -1.84 -2.48 -3.25 -3.84 -3.96 -3.37 -1.90 0.35 -26.84 5.78 7.83 8.80 8.57 7.32 5.47 3.42 1.49 -0.23 -1.64 -2.69 -3.31 -3.34 -2.79 -1.83 5.31 0.24 0.81 0.97 0.81 0.51 0.22 0.00 -0.22 -0.54 -1.05 -1.74 -2.44 -3.00 -3.20 -3.04 -8.96 -2.05 -1.64 -1.53 -1.80 -2.35 -3.01 -3.44 -3.29 -2.27 -0.30 2.36 5.15 7.41 8.59 8.48 8.59 5.34 3.30 1.49 0.03 -1.05 -1.78 -2.16 -2.16 -1.79 -1.16 -0.41 0.26 0.72 0.95 0.93 11.80 0.33 -0.18 -0.72 -1.31 -1.89 -2.47 -2.95 -3.29 -3.41 -3.21 -2.75 -2.16 -1.68 -1.54 -1.88 -19.87 -3.19 -3.31 -2.49 -0.60 2.10 4.97 7.31 8.58 8.57 7.45 5.66 3.71 1.88 0.36 -0.84 18.58 -2.21 -2.32 -2.00 -1.44 -0.78 -0.29 -0.05 -0.03 -0.08 -0.07 0.05 0.19 0.17 -0.18 -0.86 6.97 -2.46 -2.85 -2.77 -2.27 -1.59 -1.01 -0.78 -1.03 -1.69 -2.58 -3.36 -3.70 -3.28 -1.94 0.19 -21.43 5.15 6.93 7.71 7.45 6.32 4.74 3.01 1.36 -0.12 -1.37 -2.35 -2.88 -2.83 -2.23 -1.25 8.03 0.69 1.17 1.30 1.19 1.01 0.77 0.45 0.00 -0.61 -1.29 -1.94 -2.43 -2.74 -2.80 -2.66 -2.18 -1.88 -1.43 -1.12 -1.01 -1.16 -1.54 -2.03 -2.50 -2.73 -2.49 -1.63 -0.10 1.87 3.97 5.71 -3.54 6.84 6.11 4.84 3.31 1.79 0.43 -0.72 -1.65 -2.26 -2.54 -2.38 -1.82 -0.97 0.02 0.87 9.74 1.51 1.23 0.70 0.15 -0.29 -0.55 -0.70 -0.87 -1.17 -1.60 -2.06 -2.35 -2.38 -2.11 -1.65 -3.60 -0.96 -1.01 -1.40 -1.96 -2.51 -2.87 -2.86 -2.40 -1.41 0.05 1.82 3.65 5.20 6.15 6.38 8.11 4.72 3.26 1.75 0.33 -0.87 -1.79 -2.37 -2.53 -2.26 -1.59 -0.67 0.22 0.90 1.18 1.11 10.24 0.26 -0.19 -0.54 -0.79 -0.96 -1.14 -1.31 -1.49 -1.64 -1.70 -1.66 -1.48 -1.26 -0.99 -0.78 -6.10 -0.74 -1.01 -1.49 -2.13 -2.81 -3.25 -3.19 -2.44 -0.91 1.17 3.39 5.25 6.38 6.60 6.01 9.59 3.46 2.00 0.59 -0.71 -1.77 -2.42 -2.53 -2.09 -1.26 -0.28 0.55 1.11 1.37 1.39 1.24 11.19 0.50 -0.05 -0.62 -1.10 -1.41 -1.60 -1.79 -2.06 -2.40 -2.70 -2.79 -2.58 -2.10 -1.50 -1.03 -12.90 -1.03 -1.51 -2.11 -2.58 -2.71 -2.29 -1.21 0.44 2.52 4.62 6.34 7.24 7.17 6.17 4.53 15.40 1.01 -0.34 -1.28 -1.88 -2.16 -2.10 -1.69 -0.98 -0.13 0.65 1.12 1.18 0.84 0.29 -0.23 9.10 -0.76 -0.79 -0.85 -1.02 -1.39 -1.88 -2.31 -2.54 -2.46 -2.09 -1.57 -1.08 -0.75 -0.65 -0.75 -12.73 -1.21 -1.52 -1.81 -2.02 -1.93 -1.32 -0.11 1.67 3.63 5.37 6.43 6.58 5.88 4.56 2.99 15.91 0.11 -0.95 -1.76 -2.28 -2.45 -2.28 -1.75 -1.01 -0.24 0.36 0.70 0.77 0.64 0.45 0.28 6.63 -0.02 -0.22 -0.53 -0.96 -1.46 -1.91 -2.20 -2.24 -1.99 -1.58 -1.14 -0.84 -0.79 -0.98 -1.29 -13.17 -1.97 -2.13 -2.05 -1.58 -0.57 0.93 2.76 4.53 5.81 6.28 5.88 4.77 3.29 1.74 0.40 14.30 -1.32 -1.73 -1.90 -1.84 -1.58 -1.16 -0.60 0.04 0.63 1.06 1.21 1.03 0.59 0.02 -0.51 7.37 -1.05 -1.12 -1.21 -1.40 -1.68 -1.94 -2.07 -2.03 -1.81 -1.50 -1.23 -1.02 -0.96 -1.05 -1.31 -15.65 -1.88 -1.84 -1.28 -0.10 1.59 3.46 5.11 6.14 6.32 5.66 4.40 2.84 1.27 -0.11 -1.19 12.76 -2.48 -2.66 -2.53 -2.06 -1.35 -0.49 0.34 0.92 1.20 1.10 0.77 0.31 -0.16 -0.53 -0.83 3.23 -1.36 -1.67 -2.02 -2.30 -2.43 -2.26 -1.80 -1.16 -0.51 -0.15 -0.24 -0.76 -1.50 -2.07 -2.05 -20.26 0.40 2.44 4.36 5.72 6.22 5.83 4.80 3.37 1.91 0.54 -0.63 -1.55 -2.20 -2.53 -2.45 3.97 -1.25 -0.40 0.35 0.85 0.97 0.78 0.41 0.01 -0.32 -0.55 -0.70 -0.95 -1.30 -1.73 -2.16 -4.40 -2.29 -1.92 -1.37 -0.85 -0.58 -0.61 -0.97 -1.48 -1.97 -2.22 -2.04 -1.34 -0.12 1.48 3.17 -12.90 5.53 5.77 5.34 4.42 3.20 1.87 0.58 -0.58 -1.52 -2.13 -2.37 -2.20 -1.71 -1.02 -0.30 2.28 0.72 0.89 0.84 0.62 0.26 -0.12 -0.53 -0.95 -1.37 -1.79 -2.18 -2.46 -2.49 -2.22 -1.66 -11.19 -0.52 -0.40 -0.69 -1.33 -2.06 -2.58 -2.65 -2.07 -0.80 0.98 3.04 4.92 6.24 6.73 6.33 9.16 3.65 2.00 0.49 -0.76 -1.73 -2.37 -2.66 -2.54 -2.00 -1.14 -0.16 0.71 1.23 1.31 1.03 6.84 0.26 0.10 0.04 -0.06 -0.42 -1.03 -1.83 -2.54 -2.89 -2.81 -2.36 -1.78 -1.35 -1.21 -1.43 -14.33 -2.34 -2.60 -2.42 -1.63 -0.19 1.70 3.76 5.57 6.80 7.25 6.89 5.84 4.31 2.52 0.66 20.79 -2.31 -3.09 -3.34 -3.08 -2.52 -1.77 -0.99 -0.27 0.28 0.59 0.66 0.52 0.33 0.19 0.12 6.10 -0.31 -0.91 -1.68 -2.43 -2.85 -2.85 -2.45 -1.92 -1.49 -1.32 -1.46 -1.80 -2.21 -2.54 -2.60 -24.94 -1.24 0.38 2.49 4.68 6.45 7.37 7.29 6.32 4.86 3.27 1.83 0.58 -0.54 -1.52 -2.28 12.36 -2.47 -1.77 -0.73 0.33 1.11 1.44 1.28 0.76 0.09 -0.54 -1.05 -1.42 -1.71 -1.96 -2.17 1.21 -2.39 -2.29 -2.07 -1.77 -1.50 -1.32 -1.32 -1.50 -1.86 -2.32 -2.73 -2.88 -2.57 -1.59 0.04 -24.73 4.30 6.13 7.24 7.44 6.78 5.44 3.72 1.90 0.23 -1.17 -2.20 -2.78 -2.90 -2.52 -1.76 4.38 0.28 1.12 1.59 1.72 1.58 1.28 0.91 0.48 -0.04 -0.69 -1.38 -1.99 -2.42 -2.55 -2.43 -0.33 -1.91 -1.71 -1.63 -1.66 -1.78 -2.01 -2.23 -2.26 -1.87 -0.88 0.77 2.85 4.93 6.52 7.21 10.92 5.76 4.15 2.43 0.80 -0.61 -1.82 -2.77 -3.38 -3.53 -3.17 -2.34 -1.29 -0.28 0.44 0.77 6.80 0.44 0.09 -0.28 -0.63 -1.01 -1.47 -1.93 -2.29 -2.43 -2.30 -2.00 -1.67 -1.49 -1.53 -1.78 -15.61 -2.44 -2.65 -2.59 -2.13 -1.12 0.55 2.72 5.04 6.96 8.01 7.94 6.81 5.02 2.92 0.91 19.49 -2.25 -3.24 -3.72 -3.61 -2.97 -1.97 -0.83 0.21 0.96 1.43 1.61 1.53 1.23 0.67 -0.06 7.57 -1.67 -2.28 -2.56 -2.60 -2.40 -2.16 -1.97 -1.94 -2.09 -2.41 -2.73 -2.89 -2.71 -2.01 -0.72 -24.41 3.32 5.42 6.98 7.63 7.20 5.81 3.83 1.72 -0.15 -1.55 -2.45 -2.92 -3.03 -2.83 -2.37 0.53 -0.85 -0.03 0.63 1.04 1.11 0.83 0.26 -0.45 -1.10 -1.61 -1.91 -2.08 -2.22 -2.40 -2.64 -13.74 -2.99 -3.03 -2.96 -2.72 -2.13 -1.05 0.68 2.91 5.30 7.28 8.38 8.32 7.20 5.33 3.21 21.21 -0.38 -1.55 -2.28 -2.63 -2.57 -2.14 -1.41 -0.48 0.42 1.13 1.53 1.57 1.30 0.81 0.24 14.47 -0.77 -1.13 -1.45 -1.74 -2.05 -2.38 -2.67 -2.88 -2.96 -2.98 -2.90 -2.68 -2.19 -1.31 0.02 -13.87 3.52 5.10 6.11 6.40 5.92 4.84 3.36 1.75 0.21 -1.08 -2.01 -2.54 -2.66 -2.44 -2.01 9.21 -0.68 0.03 0.65 1.01 1.03 0.66 0.00 -0.78 -1.46 -1.89 -2.02 -1.95 -1.85 -1.84 -1.98 -4.13 -2.58 -2.83 -2.93 -2.82 -2.38 -1.50 -0.11 1.70 3.67 5.37 6.42 6.53 5.74 4.34 2.72 18.44 0.00 -0.91 -1.57 -2.02 -2.20 -2.07 -1.61 -0.94 -0.23 0.29 0.49 0.34 -0.13 -0.74 -1.31 4.12 -1.88 -1.83 -1.63 -1.36 -1.16 -1.05 -1.14 -1.45 -2.00 -2.70 -3.23 -3.32 -2.63 -1.04 1.27 -17.16 6.14 7.55 7.81 6.96 5.36 3.47 1.71 0.26 -0.86 -1.77 -2.50 -3.02 -3.16 -2.74 -1.80 5.73 0.69 1.48 1.70 1.38 0.75 0.01 -0.61 -1.07 -1.34 -1.45 -1.43 -1.34 -1.27 -1.37 -1.84 -2.71 -3.98 -5.25 -6.06 -5.92 -4.55 -2.09 0.98 3.87 5.91 6.74 6.41 5.28 3.83 2.45 1.27 6.56 -0.28 -0.66 -0.76 -0.60 -0.21 0.28 0.78 1.15 1.36 1.32 1.01 0.49 -0.21 -0.93 -1.54 5.80 -2.19 -2.28 -2.35 -2.46 -2.66 -2.93 -3.18 -3.32 -3.18 -2.65 -1.57 -0.02 1.86 3.79 5.40 -5.53 6.62 6.07 4.91 3.39 1.81 0.33 -0.90 -1.87 -2.55 -2.93 -3.00 -2.72 -2.07 -1.14 -0.12 1.01 1.14 1.08 0.64 0.03 -0.56 -0.94 -1.20 -1.35 -1.52 -1.75 -1.99 -2.27 -2.60 -2.98 -3.34 -20.11 -3.23 -2.28 -0.65 1.47 3.66 5.48 6.62 6.96 6.52 5.52 4.14 2.61 1.07 -0.32 -1.38 14.00 -2.33 -2.20 -1.75 -1.14 -0.47 0.12 0.53 0.67 0.50 0.07 -0.51 -1.03 -1.38 -1.48 -1.39 0.95 -1.22 -1.37 -1.64 -1.97 -2.28 -2.58 -2.84 -3.02 -2.99 -2.46 -1.29 0.54 2.77 4.92 6.48 -0.86 6.80 5.67 4.07 2.34 0.68 -0.72 -1.82 -2.54 -2.84 -2.73 -2.27 -1.55 -0.79 -0.08 0.45 4.58 0.85 0.75 0.44 -0.04 -0.63 -1.23 -1.71 -1.97 -1.99 -1.81 -1.60 -1.51 -1.67 -2.07 -2.63 -15.32 -3.18 -2.73 -1.63 0.00 1.95 3.87 5.39 6.23 6.32 5.72 4.61 3.23 1.71 0.24 -1.12 13.01 -3.05 -3.36 -3.15 -2.45 -1.47 -0.44 0.45 1.02 1.25 1.14 0.80 0.31 -0.23 -0.72 -1.11 0.59 -1.64 -1.88 -2.13 -2.41 -2.71 -2.95 -3.08 -2.93 -2.37 -1.28 0.32 2.20 4.06 5.50 6.23 1.70 5.43 4.24 2.83 1.35 -0.09 -1.39 -2.49 -3.15 -3.29 -2.91 -2.14 -1.25 -0.49 -0.03 0.17 -1.32 0.19 0.19 0.14 -0.03 -0.37 -0.83 -1.32 -1.72 -2.06 -2.33 -2.64 -3.01 -3.30 -3.30 -2.69 -25.75 0.64 2.97 5.11 6.63 7.22 6.93 5.97 4.64 3.20 1.75 0.30 -1.16 -2.53 -3.54 -4.04 4.48 -3.03 -1.82 -0.52 0.55 1.17 1.27 0.95 0.37 -0.34 -1.00 -1.55 -1.93 -2.16 -2.28 -2.34 -10.66 -2.72 -3.11 -3.49 -3.62 -3.23 -2.05 -0.11 2.31 4.72 6.56 7.47 7.36 6.45 5.07 3.56 16.54 0.57 -0.84 -2.07 -2.95 -3.25 -2.95 -2.10 -1.04 -0.07 0.60 0.86 0.79 0.53 0.22 -0.08 4.35 -0.79 -1.26 -1.76 -2.23 -2.68 -3.05 -3.34 -3.59 -3.73 -3.62 -3.09 -1.95 -0.17 2.14 4.59 -13.49 7.94 8.10 7.23 5.66 3.86 2.16 0.71 -0.51 -1.63 -2.59 -3.24 -3.36 -2.82 -1.75 -0.49 6.35 1.11 1.07 0.59 -0.06 -0.63 -1.02 -1.23 -1.40 -1.56 -1.80 -2.07 -2.38 -2.74 -3.13 -3.50 -16.11 -3.56 -2.88 -1.56 0.31 2.52 4.71 6.44 7.43 7.48 6.66 5.16 3.28 1.32 -0.41 -1.73 16.52 -2.84 -2.70 -2.20 -1.50 -0.65 0.14 0.82 1.21 1.24 0.90 0.27 -0.49 -1.19 -1.70 -1.97 3.77 -2.16 -2.24 -2.34 -2.45 -2.53 -2.62 -2.74 -2.81 -2.65 -1.99 -0.65 1.31 3.62 5.73 7.12 3.87 6.83 5.41 3.63 1.82 0.18 -1.23 -2.30 -3.02 -3.25 -2.99 -2.22 -1.19 -0.09 0.82 1.38 9.18 1.31 0.87 0.30 -0.27 -0.81 -1.27 -1.61 -1.89 -2.05 -2.13 -2.18 -2.25 -2.43 -2.75 -3.14 -14.55 -3.36 -2.68 -1.23 0.85 3.22 5.36 6.76 7.16 6.52 5.15 3.45 1.80 0.40 -0.70 -1.54 14.39 -2.65 -2.77 -2.47 -1.76 -0.81 0.14 0.87 1.23 1.23 0.97 0.53 -0.02 -0.66 -1.33 -1.94 2.58 -2.54 -2.49 -2.33 -2.23 -2.36 -2.69 -3.13 -3.39 -3.18 -2.24 -0.56 1.64 3.94 5.84 6.91 0.80 6.28 4.98 3.43 1.88 0.47 -0.77 -1.82 -2.57 -2.94 -2.87 -2.37 -1.53 -0.55 0.41 1.13 5.45 1.42 0.95 0.22 -0.59 -1.31 -1.79 -1.99 -1.96 -1.85 -1.80 -1.92 -2.26 -2.78 -3.32 -3.69 -20.77 -2.75 -1.18 0.94 3.27 5.32 6.68 7.12 6.65 5.46 3.85 2.11 0.48 -0.92 -1.97 -2.63 8.77 -2.78 -2.37 -1.74 -0.99 -0.25 0.35 0.72 0.81 0.64 0.29 -0.15 -0.61 -1.02 -1.36 -1.60 -3.06 -1.92 -2.08 -2.30 -2.63 -3.01 -3.29 -3.24 -2.63 -1.31 0.62 2.89 5.01 6.51 7.10 6.74 9.03 4.10 2.47 0.91 -0.47 -1.64 -2.51 -2.97 -2.94 -2.42 -1.59 -0.66 0.15 0.71 0.94 0.93 4.75 0.36 -0.08 -0.55 -0.99 -1.34 -1.54 -1.65 -1.68 -1.74 -1.87 -2.10 -2.42 -2.76 -2.97 -2.90 -21.85 -1.24 0.46 2.59 4.73 6.43 7.27 7.03 5.79 3.94 1.98 0.31 -0.88 -1.61 -2.06 -2.33 8.15 -2.20 -1.57 -0.57 0.57 1.50 1.91 1.71 0.97 -0.02 -0.99 -1.73 -2.15 -2.27 -2.23 -2.12 -3.08 -1.99 -1.99 -2.00 -2.06 -2.15 -2.26 -2.23 -1.84 -0.91 0.65 2.68 4.79 6.45 7.24 6.98 14.10 4.09 2.25 0.59 -0.72 -1.69 -2.37 -2.74 -2.80 -2.45 -1.81 -0.95 -0.14 0.41 0.58 0.44 6.88 -0.28 -0.58 -0.78 -0.93 -1.12 -1.40 -1.75 -2.12 -2.42 -2.61 -2.68 -2.72 -2.83 -2.97 -3.03 -24.07 -1.88 -0.42 1.53 3.64 5.46 6.66 7.04 6.58 5.47 3.96 2.34 0.84 -0.41 -1.32 -1.89 11.37 -2.12 -1.81 -1.26 -0.56 0.14 0.67 0.94 0.88 0.57 0.10 -0.42 -0.89 -1.25 -1.53 -1.72 1.24 -1.97 -2.09 -2.25 -2.47 -2.73 -2.97 -3.11 -3.03 -2.60 -1.71 -0.35 1.40 3.34 5.11 6.40 -0.86 6.61 5.55 3.99 2.25 0.57 -0.84 -1.89 -2.50 -2.68 -2.48 -1.99 -1.35 -0.70 -0.13 0.31 4.44 0.72 0.71 0.53 0.21 -0.24 -0.74 -1.26 -1.74 -2.12 -2.37 -2.46 -2.38 -2.23 -2.12 -2.20 -15.74 -2.89 -3.07 -2.71 -1.56 0.33 2.66 4.89 6.54 7.27 7.04 6.08 4.69 3.12 1.58 0.15 17.30 -1.94 -2.36 -2.33 -1.90 -1.29 -0.66 -0.13 0.23 0.44 0.53 0.50 0.34 0.08 -0.30 -0.77 6.43 -1.88 -2.42 -2.79 -2.91 -2.75 -2.38 -1.97 -1.69 -1.67 -1.92 -2.36 -2.76 -2.88 -2.44 -1.25 -26.98 3.04 5.38 7.16 7.95 7.65 6.46 4.79 3.03 1.40 0.01 -1.13 -2.03 -2.59 -2.68 -2.34 7.47 -0.84 -0.13 0.35 0.56 0.58 0.48 0.30 0.03 -0.33 -0.81 -1.36 -1.93 -2.38 -2.69 -2.72 -5.90 -2.06 -1.59 -1.23 -1.16 -1.38 -1.88 -2.44 -2.80 -2.73 -2.06 -0.73 1.11 3.19 5.14 6.59 -2.64 7.19 6.34 4.97 3.31 1.59 -0.04 -1.47 -2.55 -3.14 -3.14 -2.53 -1.48 -0.29 0.69 1.19 9.19 0.85 0.43 0.15 0.03 -0.04 -0.22 -0.64 -1.23 -1.86 -2.32 -2.56 -2.55 -2.36 -2.08 -1.78 -8.50 -1.33 -1.31 -1.51 -1.94 -2.45 -2.82 -2.75 -1.95 -0.32 1.97 4.50 6.65 7.91 8.00 7.01 16.47 3.40 1.65 0.19 -0.99 -1.90 -2.52 -2.72 -2.38 -1.58 -0.52 0.47 1.09 1.29 1.21 1.06 15.27 1.17 1.28 1.19 0.81 0.20 -0.52 -1.13 -1.49 -1.58 -1.40 -0.97 -0.34 0.31 0.72 0.50 13.51 -2.08 -3.57 -4.00 -2.61 0.82 5.78 11.11 15.50 17.91 17.83 15.34 10.90 5.12 -1.31 -7.63 79.62 -16.65 -18.02 -17.01 -13.97 -9.73 -5.20 -1.15 2.08 4.68 7.20 10.18 13.65 16.86 18.22 16.19 96.84 -0.04 -11.58 -22.07 -29.19 -32.00 -30.83 -26.88 -21.44 -15.34 -9.15 -3.41 1.07 3.57 3.85 2.62 -92.72 1.26 3.23 6.66 10.06 11.73 10.68 6.90 1.44 -4.25 -8.86 -11.66 -12.49 -11.60 -9.41 -6.33 -108.13 0.66 3.30 4.52 4.04 2.09 -0.67 -3.33 -5.14 -5.71 -5.08 -3.58 -1.59 0.52 2.62 4.54 -104.80 7.20 7.45 6.81 5.55 4.22 3.56 4.28 6.71 10.73 15.66 20.53 24.31 26.20 25.96 23.85 108.90 17.39 14.75 13.09 12.08 11.01 9.07 5.77 1.26 -3.79 -8.43 -11.76 -13.34 -13.29 -12.30 -11.42 107.44 -13.15 -15.91 -19.09 -21.70 -23.02 -22.82 -21.21 -18.46 -14.66 -9.87 -4.41 1.02 5.28 7.36 6.80 -52.24 0.85 -1.54 -1.91 -0.13 2.94 6.12 8.32 9.21 9.11 8.59 8.10 7.63 6.79 5.19 2.68 19.34 -3.35 -5.58 -6.68 -6.69 -5.93 -4.90 -3.95 -3.22 -2.67 -2.19 -1.69 -1.21 -0.83 -0.65 -0.70 -31.79 -1.11 -1.13 -0.93 -0.56 -0.18 -0.06 -0.37 -1.18 -2.29 -3.36 -3.90 -3.40 -1.67 1.15 4.43 -38.98 9.17 9.46 8.38 6.49 4.54 3.11 2.38 2.16 2.13 2.03 1.81 1.61 1.63 2.00 2.60 23.77 3.67 3.68 3.25 2.43 1.38 0.29 -0.69 -1.48 -1.99 -2.22 -2.19 -1.97 -1.65 -1.40 -1.33 21.98 -2.12 -2.90 -3.74 -4.41 -4.68 -4.39 -3.38 -1.71 0.41 2.64 4.54 5.78 6.17 5.82 4.91 28.68 2.52 1.28 0.05 -1.10 -2.07 -2.68 -2.81 -2.46 -1.79 -1.03 -0.37 0.01 0.12 0.00 -0.22 17.64 -0.75 -1.03 -1.31 -1.58 -1.78 -1.89 -1.89 -1.86 -1.90 -2.06 -2.43 -2.89 -3.34 -3.56 -3.32 -16.46 -1.09 0.77 2.73 4.43 5.50 5.79 5.37 4.48 3.37 2.27 1.26 0.42 -0.22 -0.61 -0.71 16.75 -0.26 0.01 0.17 0.19 0.09 -0.09 -0.34 -0.71 -1.20 -1.73 -2.17 -2.39 -2.41 -2.27 -2.12 -0.54 -2.10 -2.19 -2.28 -2.37 -2.40 -2.37 -2.11 -1.49 -0.42 1.10 2.83 4.46 5.64 6.15 5.91 12.91 3.93 2.75 1.70 0.87 0.19 -0.41 -0.94 -1.27 -1.32 -1.01 -0.44 0.21 0.68 0.85 0.69 19.70 -0.13 -0.50 -0.80 -1.11 -1.50 -2.02 -2.59 -3.12 -3.48 -3.61 -3.61 -3.63 -3.80 -4.17 -4.60 -23.76 -4.42 -3.36 -1.73 0.16 1.86 3.02 3.49 3.39 2.88 2.22 1.49 0.75 0.01 -0.66 -1.15 -17.16 -1.14 -0.64 0.07 0.78 1.37 1.80 2.11 2.31 2.39 2.30 1.97 1.38 0.62 -0.12 -0.72 -3.71 -1.11 -1.10 -1.09 -1.20 -1.40 -1.66 -1.85 -1.93 -1.78 -1.34 -0.51 0.73 2.34 4.14 5.84 1.42 7.50 7.08 5.97 4.48 2.99 1.75 0.90 0.37 -0.01 -0.34 -0.70 -1.06 -1.38 -1.54 -1.55 24.53 -1.04 -0.71 -0.51 -0.55 -0.83 -1.24 -1.58 -1.71 -1.64 -1.46 -1.40 -1.58 -2.01 -2.56 -3.06 -0.79 -3.67 -3.79 -3.80 -3.56 -2.85 -1.57 0.28 2.40 4.37 5.74 6.29 5.97 5.02 3.80 2.60 18.02 0.83 0.25 -0.16 -0.46 -0.59 -0.47 -0.11 0.38 0.86 1.12 1.07 0.76 0.29 -0.20 -0.57 20.15 -1.12 -1.31 -1.46 -1.56 -1.59 -1.68 -1.92 -2.45 -3.27 -4.24 -5.09 -5.51 -5.20 -4.09 -2.22 -22.43 2.53 4.49 5.63 5.76 4.97 3.57 1.98 0.52 -0.59 -1.32 -1.69 -1.85 -1.80 -1.63 -1.36 -4.21 -0.56 -0.10 0.33 0.64 0.73 0.54 0.05 -0.57 -1.18 -1.63 -1.84 -1.85 -1.72 -1.54 -1.34 -15.50 -1.34 -1.71 -2.31 -2.93 -3.22 -2.82 -1.58 0.36 2.57 4.57 5.93 6.50 6.38 5.71 4.73 8.85 2.14 0.70 -0.67 -1.80 -2.52 -2.77 -2.58 -2.08 -1.43 -0.79 -0.26 0.07 0.11 -0.11 -0.55 -4.82 -1.63 -1.94 -1.97 -1.67 -1.22 -0.79 -0.58 -0.72 -1.16 -1.72 -2.17 -2.21 -1.67 -0.52 1.11 -20.76 4.51 5.55 5.89 5.55 4.69 3.53 2.29 1.02 -0.27 -1.51 -2.58 -3.31 -3.53 -3.22 -2.43 -6.00 -0.45 0.32 0.73 0.85 0.75 0.52 0.24 -0.06 -0.38 -0.74 -1.06 -1.35 -1.58 -1.76 -1.97 -14.14 -2.39 -2.36 -1.91 -0.88 0.71 2.65 4.52 6.00 6.72 6.60 5.75 4.39 2.75 1.06 -0.55 16.92 -3.16 -3.87 -4.00 -3.56 -2.64 -1.53 -0.59 -0.01 0.13 -0.03 -0.24 -0.34 -0.29 -0.14 -0.03 -3.44 -0.24 -0.55 -1.05 -1.67 -2.43 -3.15 -3.56 -3.37 -2.41 -0.72 1.37 3.46 5.08 5.99 6.13 5.10 4.72 3.53 2.19 0.82 -0.54 -1.71 -2.56 -2.91 -2.71 -1.97 -0.89 0.21 1.00 1.24 0.88 6.47 -0.83 -1.51 -1.76 -1.64 -1.34 -1.15 -1.24 -1.68 -2.31 -2.93 -3.37 -3.49 -3.20 -2.35 -0.93 -22.22 3.29 5.41 6.93 7.58 7.23 6.15 4.66 3.05 1.48 -0.05 -1.52 -2.85 -3.79 -4.18 -3.89 4.24 -1.90 -0.74 0.16 0.72 0.89 0.76 0.41 -0.05 -0.49 -0.90 -1.24 -1.58 -1.96 -2.39 -2.84 -10.14 -3.51 -3.56 -3.35 -2.73 -1.61 0.04 2.09 4.24 6.06 7.22 7.46 6.86 5.58 3.96 2.30 21.67 -0.51 -1.55 -2.32 -2.81 -2.96 -2.65 -1.95 -0.96 0.04 0.77 1.05 0.83 0.28 -0.43 -1.05 5.98 -1.68 -1.73 -1.69 -1.63 -1.61 -1.70 -1.91 -2.23 -2.54 -2.70 -2.47 -1.68 -0.34 1.41 3.19 -8.70 5.42 5.44 4.83 3.80 2.55 1.28 0.10 -0.95 -1.78 -2.33 -2.57 -2.46 -2.02 -1.34 -0.52 1.01 0.87 1.10 0.92 0.39 -0.33 -1.01 -1.52 -1.80 -1.92 -2.03 -2.17 -2.40 -2.66 -2.89 -2.95 -20.09 -1.98 -0.72 1.00 2.96 4.81 6.18 6.84 6.73 5.97 4.75 3.25 1.57 -0.18 -1.85 -3.19 12.06 -4.10 -3.57 -2.66 -1.61 -0.70 -0.02 0.37 0.55 0.56 0.38 0.10 -0.26 -0.61 -0.91 -1.17 -3.03 -1.85 -2.40 -3.06 -3.63 -3.89 -3.57 -2.59 -0.95 1.11 3.23 5.02 6.20 6.62 6.32 5.44 13.13 2.63 0.96 -0.68 -2.10 -3.15 -3.62 -3.47 -2.74 -1.64 -0.41 0.65 1.31 1.46 1.13 0.51 3.76 -0.80 -1.18 -1.38 -1.52 -1.71 -1.98 -2.34 -2.72 -3.04 -3.26 -3.24 -2.84 -1.91 -0.38 1.63 -19.12 5.73 7.04 7.44 6.95 5.69 4.02 2.24 0.67 -0.59 -1.45 -1.97 -2.17 -2.07 -1.66 -0.96 9.69 0.69 1.17 1.14 0.61 -0.23 -1.03 -1.58 -1.75 -1.66 -1.52 -1.55 -1.80 -2.24 -2.68 -2.92 -8.57 -2.54 -1.88 -0.91 0.39 2.01 3.87 5.70 7.16 7.88 7.62 6.44 4.62 2.57 0.76 -0.60 33.12 -1.69 -1.58 -1.17 -0.51 0.32 1.23 2.16 2.93 3.50 3.78 3.81 3.63 3.33 2.94 2.45 60.02 0.87 -0.15 -1.11 -1.75 -1.92 -1.72 -1.42 -1.35 -1.54 -1.72 -1.48 -0.48 1.10 2.65 3.34 55.90 0.25 -3.04 -6.41 -9.05 -10.55 -10.89 -10.27 -9.00 -7.28 -5.29 -3.23 -1.36 -0.02 0.46 0.00 -21.04 -2.95 -4.47 -5.34 -5.33 -4.55 -3.32 -2.05 -1.01 -0.19 0.54 1.32 2.20 3.10 3.99 4.82 -28.59 6.55 7.27 7.59 7.32 6.35 4.74 2.73 0.57 -1.53 -3.33 -4.69 -5.51 -5.76 -5.49 -4.79 -20.18 -2.00 0.03 2.23 4.15 5.25 5.20 4.07 2.36 0.71 -0.38 -0.79 -0.81 -0.84 -1.15 -1.65 -5.72 -1.66 -0.84 0.17 0.71 0.38 -0.82 -2.41 -3.80 -4.62 -4.99 -5.24 -5.62 -5.99 -5.83 -4.74 -53.70 -0.25 1.64 2.22 1.39 -0.34 -2.12 -3.33 -3.77 -3.65 -3.42 -3.20 -2.81 -1.75 0.50 4.05 -59.97 13.26 17.13 19.46 19.96 18.81 16.49 13.49 10.21 6.73 3.15 -0.30 -3.28 -5.39 -6.41 -6.53 50.55 -6.22 -6.99 -8.84 -11.65 -15.01 -18.31 -21.02 -22.70 -23.15 -22.33 -20.29 -17.26 -13.56 -9.61 -5.73 -174.16 1.61 5.37 9.34 13.22 16.46 18.38 18.71 17.74 16.37 15.53 15.83 17.06 18.48 19.18 18.59 64.49 14.28 11.76 9.59 7.75 5.95 3.91 1.62 -0.68 -2.59 -3.91 -4.73 -5.26 -5.81 -6.48 -7.16 75.16 -7.48 -6.89 -6.00 -5.09 -4.44 -4.23 -4.40 -4.84 -5.35 -5.78 -6.02 -6.01 -5.85 -5.56 -5.18 -12.64 -4.01 -3.11 -1.97 -0.72 0.54 1.64 2.50 3.06 3.35 3.34 3.05 2.52 1.79 1.00 0.31 0.48 -0.38 -0.36 -0.23 -0.07 0.10 0.24 0.42 0.57 0.67 0.59 0.30 -0.20 -0.80 -1.35 -1.74 -3.76 -2.20 -2.50 -2.88 -3.28 -3.54 -3.46 -3.01 -2.23 -1.28 -0.26 0.67 1.51 2.15 2.57 2.73 -16.17 2.27 1.88 1.53 1.28 1.09 0.91 0.63 0.29 -0.07 -0.30 -0.35 -0.20 0.04 0.27 0.39 -6.07 0.45 0.47 0.51 0.58 0.58 0.55 0.46 0.27 0.08 -0.16 -0.43 -0.65 -0.73 -0.61 -0.24 -4.58 1.09 1.84 2.46 2.87 3.03 2.99 2.82 2.61 2.43 2.26 2.08 1.83 1.55 1.31 1.15 28.86 1.17 1.25 1.25 1.11 0.85 0.50 0.17 -0.10 -0.21 -0.24 -0.24 -0.33 -0.53 -0.86 -1.24 29.84 -1.80 -1.94 -1.93 -1.83 -1.55 -1.17 -0.75 -0.45 -0.46 -0.91 -1.83 -3.07 -4.46 -5.70 -6.53 -11.33 -6.40 -5.50 -4.31 -3.15 -2.19 -1.57 -1.30 -1.37 -1.71 -2.23 -2.72 -2.98 -2.80 -2.11 -1.05 -52.58 1.13 1.76 1.97 1.87 1.61 1.34 1.20 1.32 1.80 2.67 3.84 5.04 5.94 6.27 5.91 -3.93 3.69 2.34 1.07 -0.02 -0.98 -1.80 -2.38 -2.56 -2.26 -1.52 -0.52 0.48 1.19 1.47 1.36 -3.37 0.58 0.25 0.00 -0.16 -0.29 -0.35 -0.31 -0.14 0.04 0.14 -0.01 -0.46 -1.02 -1.36 -1.12 -7.62 1.67 3.61 5.26 6.18 6.22 5.56 4.47 3.25 2.10 1.06 0.16 -0.60 -1.19 -1.61 -1.93 24.35 -2.58 -2.94 -3.26 -3.46 -3.44 -3.23 -2.76 -2.12 -1.34 -0.53 0.13 0.57 0.72 0.73 0.70 2.30 0.93 1.08 1.20 1.26 1.39 1.67 2.11 2.57 2.88 2.92 2.65 2.20 1.65 1.05 0.42 28.00 -1.02 -1.69 -2.17 -2.42 -2.47 -2.48 -2.55 -2.75 -2.98 -3.16 -3.14 -2.97 -2.65 -2.25 -1.79 -9.76 -0.70 -0.16 0.23 0.33 0.15 -0.34 -0.98 -1.66 -2.17 -2.40 -2.22 -1.64 -0.71 0.33 1.28 -18.44 2.38 2.50 2.42 2.19 1.77 1.21 0.53 -0.09 -0.50 -0.59 -0.43 -0.10 0.19 0.39 0.47 -5.61 0.55 0.60 0.66 0.64 0.47 0.15 -0.31 -0.81 -1.25 -1.56 -1.70 -1.63 -1.45 -1.16 -0.84 -13.80 -0.37 -0.28 -0.21 -0.03 0.36 0.98 1.73 2.43 2.95 3.15 3.05 2.71 2.22 1.72 1.21 8.57 0.36 0.03 -0.20 -0.30 -0.24 -0.08 0.14 0.27 0.26 0.04 -0.27 -0.52 -0.64 -0.56 -0.42 6.09 -0.41 -0.64 -0.91 -1.10 -1.20 -1.18 -1.11 -1.03 -0.82 -0.40 0.26 1.09 1.89 2.42 2.54 7.75 1.71 1.07 0.49 0.01 -0.43 -0.88 -1.35 -1.80 -2.19 -2.45 -2.49 -2.38 -2.06 -1.59 -0.99 -7.96 0.13 0.40 0.36 0.08 -0.24 -0.36 -0.15 0.34 0.91 1.27 1.24 0.81 0.16 -0.43 -0.77 -4.93 -0.30 0.32 0.98 1.60 2.09 2.40 2.51 2.36 1.97 1.32 0.54 -0.21 -0.79 -1.14 -1.25 6.24 -1.20 -1.23 -1.26 -1.27 -1.15 -0.91 -0.54 -0.20 0.05 0.08 -0.07 -0.30 -0.53 -0.62 -0.60 -4.03 -0.46 -0.50 -0.67 -0.97 -1.26 -1.50 -1.52 -1.25 -0.63 0.29 1.38 2.34 3.02 3.22 2.97 2.81 1.67 1.04 0.53 0.10 -0.33 -0.82 -1.30 -1.63 -1.66 -1.29 -0.66 0.02 0.51 0.63 0.39 -0.03 -0.45 -0.70 -0.74 -0.62 -0.49 -0.45 -0.51 -0.65 -0.76 -0.84 -0.88 -0.91 -0.90 -0.81 -0.47 -9.99 1.18 2.27 3.15 3.56 3.38 2.68 1.67 0.60 -0.35 -1.12 -1.67 -2.06 -2.25 -2.23 -2.03 -4.85 -1.18 -0.69 -0.24 0.13 0.32 0.35 0.26 0.13 0.13 0.27 0.52 0.73 0.77 0.55 0.15 -2.92 -0.58 -0.69 -0.64 -0.47 -0.17 0.33 1.03 1.91 2.80 3.44 3.64 3.36 2.75 1.97 1.23 17.55 -0.06 -0.71 -1.40 -1.99 -2.44 -2.66 -2.69 -2.62 -2.48 -2.32 -2.09 -1.78 -1.45 -1.11 -0.80 -9.59 -0.33 -0.16 -0.05 -0.06 -0.18 -0.43 -0.77 -1.16 -1.59 -1.97 -2.26 -2.27 -1.84 -0.88 0.52 -20.96 3.43 4.37 4.72 4.56 4.02 3.27 2.48 1.74 1.10 0.62 0.32 0.19 0.21 0.33 0.53 11.61 0.74 0.59 0.23 -0.38 -1.08 -1.75 -2.26 -2.60 -2.77 -2.81 -2.76 -2.61 -2.37 -2.11 -1.86 -13.88 -1.55 -1.35 -0.90 -0.08 1.09 2.40 3.58 4.36 4.59 4.33 3.80 3.14 2.47 1.77 1.00 14.91 -0.69 -1.32 -1.58 -1.43 -1.05 -0.63 -0.44 -0.55 -0.96 -1.55 -2.17 -2.66 -2.92 -2.89 -2.64 -10.82 -1.94 -1.87 -2.10 -2.58 -3.12 -3.57 -3.72 -3.55 -3.03 -2.23 -1.10 0.31 1.93 3.56 4.99 -22.86 6.44 6.35 5.82 5.02 4.02 2.88 1.60 0.19 -1.20 -2.35 -3.03 -3.09 -2.56 -1.64 -0.60 -4.74 0.78 0.93 0.76 0.39 -0.09 -0.62 -1.17 -1.71 -2.22 -2.72 -3.16 -3.53 -3.72 -3.71 -3.52 -31.33 -3.06 -2.94 -2.61 -1.72 0.14 3.07 6.64 10.02 12.16 12.28 10.30 6.78 2.82 -0.42 -2.21 17.50 -1.49 -0.11 1.15 2.03 2.69 3.42 4.52 6.06 8.01 10.09 12.01 13.31 13.49 12.24 9.55 120.21 1.48 -2.67 -6.26 -9.26 -11.93 -14.83 -18.45 -23.10 -28.51 -33.81 -37.66 -38.65 -35.89 -29.42 -20.32 -199.33 -1.01 6.34 11.37 14.35 15.72 15.98 15.45 14.42 13.19 12.10 11.58 11.81 12.94 14.73 16.64 4.15 17.67 15.62 11.97 7.54 3.38 0.38 -1.21 -1.74 -1.88 -2.22 -2.96 -3.91 -4.68 -5.00 -4.84 27.92 -3.76 -3.23 -2.87 -2.71 -2.88 -3.39 -4.09 -4.63 -4.50 -3.31 -0.91 2.34 5.77 8.68 10.48 29.93 10.48 9.20 7.52 5.68 3.78 1.91 0.17 -1.25 -2.13 -2.38 -2.08 -1.44 -0.84 -0.57 -0.70 56.10 -1.75 -2.21 -2.45 -2.54 -2.68 -3.07 -3.72 -4.57 -5.30 -5.67 -5.55 -4.97 -4.15 -3.40 -2.97 -1.85 -3.30 -3.87 -4.46 -4.81 -4.73 -3.96 -2.36 0.09 3.14 6.32 9.00 10.66 11.01 10.09 8.24 35.11 3.47 1.22 -0.68 -2.08 -2.92 -3.07 -2.61 -1.72 -0.78 -0.10 0.10 -0.12 -0.52 -0.78 -0.75 23.29 -0.22 -0.25 -0.76 -1.71 -2.81 -3.74 -4.25 -4.18 -3.66 -2.89 -2.19 -1.85 -2.05 -2.72 -3.66 -18.08 -4.57 -3.80 -2.03 0.46 3.28 5.84 7.71 8.63 8.55 7.59 5.95 3.94 1.80 -0.13 -1.60 21.10 -2.61 -2.19 -1.40 -0.53 0.22 0.69 0.87 0.80 0.61 0.34 0.02 -0.36 -0.84 -1.40 -1.97 10.93 -2.74 -2.84 -2.75 -2.56 -2.38 -2.36 -2.57 -3.01 -3.56 -3.95 -3.81 -2.89 -1.09 1.40 4.12 -13.46 8.28 8.96 8.54 7.21 5.24 2.99 0.81 -1.00 -2.28 -2.99 -3.17 -2.98 -2.55 -2.00 -1.38 9.47 -0.16 0.34 0.63 0.65 0.40 -0.09 -0.73 -1.33 -1.83 -2.12 -2.22 -2.21 -2.21 -2.36 -2.71 -9.72 -3.91 -4.59 -5.18 -5.43 -5.12 -3.98 -1.94 0.94 4.21 7.31 9.60 10.62 10.25 8.71 6.46 22.23 1.80 0.05 -1.11 -1.81 -2.13 -2.17 -1.97 -1.59 -1.07 -0.50 0.02 0.39 0.57 0.53 0.30 13.41 -0.77 -1.53 -2.29 -2.93 -3.31 -3.39 -3.25 -3.03 -2.86 -2.88 -3.15 -3.64 -4.21 -4.61 -4.48 -36.39 -1.40 1.53 4.84 7.85 9.90 10.64 10.13 8.69 6.77 4.72 2.79 1.04 -0.48 -1.71 -2.56 23.40 -2.89 -2.46 -1.83 -1.21 -0.74 -0.50 -0.44 -0.52 -0.67 -0.85 -1.14 -1.57 -2.10 -2.71 -3.24 -3.07 -3.70 -3.59 -3.34 -3.12 -3.07 -3.32 -3.78 -4.24 -4.36 -3.74 -2.12 0.42 3.55 6.65 9.06 -11.46 10.26 9.04 7.06 4.77 2.52 0.50 -1.08 -2.21 -2.83 -2.95 -2.65 -2.06 -1.29 -0.48 0.30 8.39 1.36 1.45 1.18 0.58 -0.21 -1.02 -1.73 -2.22 -2.53 -2.71 -2.84 -2.96 -3.06 -3.20 -3.44 -16.77 -4.29 -4.63 -4.50 -3.55 -1.62 1.11 4.11 6.70 8.32 8.77 8.10 6.66 4.84 2.91 1.10 16.79 -1.71 -2.51 -2.84 -2.74 -2.29 -1.67 -0.97 -0.30 0.27 0.64 0.74 0.57 0.17 -0.35 -0.93 1.38 -2.05 -2.57 -2.98 -3.27 -3.40 -3.43 -3.48 -3.68 -4.04 -4.36 -4.23 -3.27 -1.29 1.55 4.74 -26.76 9.55 10.25 9.72 8.20 6.10 3.78 1.55 -0.39 -1.90 -2.88 -3.33 -3.27 -2.79 -2.04 -1.19 4.16 0.07 0.21 0.03 -0.31 -0.66 -0.82 -0.85 -0.80 -0.82 -1.04 -1.44 -1.99 -2.65 -3.33 -4.06 -19.07 -5.32 -5.48 -5.02 -3.65 -1.40 1.51 4.62 7.32 9.07 9.64 9.06 7.66 5.88 4.04 2.33 21.91 -0.79 -2.14 -3.16 -3.69 -3.64 -3.12 -2.38 -1.64 -1.10 -0.76 -0.61 -0.54 -0.57 -0.69 -0.92 -5.05 -1.44 -1.59 -1.65 -1.71 -1.94 -2.42 -3.15 -3.90 -4.39 -4.24 -3.19 -1.14 1.65 4.77 7.62 -12.12 10.52 10.16 8.73 6.53 4.02 1.52 -0.68 -2.43 -3.64 -4.26 -4.31 -3.77 -2.81 -1.53 -0.27 6.43 1.36 1.45 1.09 0.44 -0.33 -1.08 -1.68 -2.08 -2.23 -2.26 -2.28 -2.41 -2.79 -3.36 -3.94 -17.98 -4.22 -3.43 -1.87 0.40 3.09 5.74 7.79 8.78 8.59 7.35 5.52 3.55 1.73 0.16 -1.22 21.56 -3.36 -3.88 -3.78 -3.05 -1.86 -0.50 0.70 1.46 1.74 1.57 1.07 0.39 -0.33 -1.11 -1.85 6.19 -3.20 -3.66 -3.91 -4.01 -4.05 -4.09 -4.05 -3.77 -2.97 -1.48 0.70 3.21 5.58 7.30 8.06 3.68 6.78 5.21 3.31 1.32 -0.66 -2.37 -3.58 -4.11 -3.82 -2.88 -1.54 -0.22 0.75 1.19 1.07 4.64 -0.21 -0.92 -1.45 -1.73 -1.87 -1.98 -2.23 -2.70 -3.37 -4.12 -4.72 -4.93 -4.42 -3.03 -0.79 -31.79 4.92 7.29 8.66 8.85 8.01 6.45 4.57 2.61 0.72 -1.00 -2.42 -3.35 -3.68 -3.34 -2.49 2.59 -0.42 0.23 0.46 0.28 -0.16 -0.72 -1.23 -1.59 -1.81 -1.95 -2.17 -2.64 -3.46 -4.54 -5.56 -28.76 -5.63 -4.07 -1.44 1.77 5.03 7.78 9.60 10.35 10.02 8.78 6.89 4.62 2.36 0.31 -1.35 23.75 -3.21 -3.44 -3.19 -2.52 -1.58 -0.63 0.03 0.24 -0.02 -0.53 -1.08 -1.51 -1.85 -2.18 -2.59 -3.41 -3.66 -4.23 -4.77 -5.24 -5.48 -5.18 -4.01 -1.78 1.34 4.78 7.81 9.71 10.21 9.44 7.83 19.20 3.88 2.10 0.52 -0.87 -1.96 -2.60 -2.63 -2.01 -0.90 0.39 1.48 2.01 1.89 1.16 0.04 20.55 -2.14 -2.79 -3.09 -3.17 -3.21 -3.43 -3.89 -4.56 -5.33 -5.98 -6.21 -5.82 -4.62 -2.60 0.13 -33.00 6.01 8.18 9.26 9.15 8.03 6.24 4.19 2.24 0.57 -0.63 -1.36 -1.58 -1.38 -0.84 -0.15 15.41 0.91 1.03 0.90 0.62 0.36 0.16 0.02 -0.17 -0.50 -0.99 -1.58 -2.14 -2.55 -2.74 -2.72 3.44 -2.35 -2.18 -2.15 -2.36 -2.90 -3.70 -4.54 -5.01 -4.73 -3.42 -1.12 1.85 4.92 7.48 9.04 1.69 8.66 7.03 4.89 2.60 0.45 -1.36 -2.60 -3.17 -2.97 -2.09 -0.77 0.62 1.70 2.16 1.99 20.18 0.54 -0.15 -0.56 -0.64 -0.56 -0.50 -0.59 -0.91 -1.39 -1.89 -2.31 -2.55 -2.62 -2.57 -2.51 -1.55 -2.61 -2.77 -3.03 -3.34 -3.65 -3.74 -3.33 -2.23 -0.36 2.05 4.52 6.52 7.65 7.71 6.88 14.12 3.61 1.76 0.02 -1.43 -2.43 -2.86 -2.67 -1.97 -1.01 -0.05 0.66 1.02 1.05 0.88 0.62 11.69 0.11 -0.23 -0.70 -1.30 -1.99 -2.69 -3.16 -3.36 -3.20 -2.79 -2.25 -1.76 -1.48 -1.44 -1.66 -18.26 -2.48 -2.74 -2.60 -1.83 -0.38 1.67 3.97 6.03 7.35 7.68 6.97 5.46 3.56 1.64 -0.02 14.76 -2.11 -2.55 -2.68 -2.49 -2.03 -1.37 -0.61 0.11 0.61 0.85 0.82 0.64 0.40 0.16 -0.08 4.03 -0.84 -1.38 -1.90 -2.29 -2.41 -2.25 -1.93 -1.63 -1.62 -2.03 -2.81 -3.63 -4.01 -3.49 -1.83 -29.28 3.66 6.16 7.67 7.92 7.03 5.47 3.66 1.96 0.51 -0.61 -1.46 -2.04 -2.26 -2.15 -1.75 3.32 -0.59 -0.14 0.14 0.27 0.35 0.36 0.31 0.09 -0.31 -0.89 -1.51 -2.03 -2.36 -2.49 -2.46 -10.27 -2.18 -2.04 -1.97 -2.04 -2.21 -2.38 -2.33 -1.78 -0.55 1.31 3.57 5.74 7.33 7.93 7.39 11.38 3.76 1.60 -0.20 -1.42 -2.03 -2.22 -2.07 -1.70 -1.13 -0.42 0.31 0.91 1.18 1.07 0.66 9.75 -0.53 -1.09 -1.64 -2.19 -2.75 -3.15 -3.32 -3.20 -2.88 -2.50 -2.29 -2.33 -2.53 -2.77 -2.72 -28.23 -0.74 1.25 3.57 5.66 7.06 7.44 6.85 5.59 4.05 2.54 1.22 0.05 -1.02 -1.98 -2.69 7.59 -2.93 -2.42 -1.66 -0.79 0.01 0.59 0.90 0.87 0.58 0.12 -0.44 -1.01 -1.56 -2.03 -2.30 -6.87 -2.29 -2.11 -2.05 -2.24 -2.67 -3.15 -3.35 -2.92 -1.65 0.39 2.85 5.23 6.99 7.80 7.60 8.10 4.97 3.22 1.54 0.03 -1.30 -2.42 -3.20 -3.59 -3.44 -2.81 -1.88 -0.88 -0.09 0.37 0.53 -0.36 0.36 0.16 -0.12 -0.57 -1.11 -1.67 -2.08 -2.22 -2.16 -2.05 -2.09 -2.44 -3.01 -3.46 -3.43 -28.82 -0.77 1.66 4.25 6.34 7.52 7.57 6.72 5.32 3.80 2.39 1.10 -0.15 -1.41 -2.56 -3.37 6.02 -3.09 -2.06 -0.85 0.18 0.77 0.81 0.42 -0.20 -0.82 -1.32 -1.63 -1.79 -1.86 -1.91 -1.97 -11.39 -2.26 -2.49 -2.76 -2.98 -2.92 -2.35 -1.04 0.99 3.51 5.94 7.80 8.65 8.42 7.30 5.64 23.79 1.75 -0.12 -1.81 -3.13 -3.94 -4.16 -3.79 -2.98 -1.95 -0.95 -0.16 0.26 0.31 0.06 -0.37 2.02 -1.13 -1.39 -1.64 -1.95 -2.37 -2.87 -3.33 -3.74 -4.03 -4.08 -3.76 -2.85 -1.27 0.93 3.44 -22.27 7.39 8.08 7.78 6.73 5.26 3.62 1.97 0.36 -1.17 -2.47 -3.38 -3.68 -3.30 -2.30 -1.03 1.76 0.90 0.96 0.46 -0.35 -1.11 -1.53 -1.59 -1.43 -1.27 -1.33 -1.67 -2.28 -2.99 -3.64 -4.00 -22.93 -2.92 -1.26 1.00 3.46 5.67 7.17 7.73 7.37 6.33 4.91 3.32 1.73 0.17 -1.26 -2.43 14.90 -3.32 -2.89 -2.00 -0.92 0.04 0.66 0.81 0.53 -0.03 -0.65 -1.20 -1.61 -1.87 -2.04 -2.17 -4.05 -2.37 -2.49 -2.61 -2.79 -2.90 -2.74 -2.00 -0.53 1.66 4.18 6.49 8.03 8.46 7.81 6.34 24.94 2.48 0.63 -1.01 -2.42 -3.52 -4.17 -4.23 -3.71 -2.73 -1.55 -0.50 0.13 0.25 -0.07 -0.61 2.81 -1.35 -1.36 -1.20 -1.09 -1.13 -1.38 -1.82 -2.34 -2.84 -3.19 -3.19 -2.66 -1.42 0.53 2.94 -13.36 7.12 7.91 7.56 6.32 4.59 2.81 1.20 -0.16 -1.36 -2.36 -3.06 -3.30 -2.96 -2.10 -0.99 7.87 0.59 0.66 0.33 -0.14 -0.47 -0.52 -0.36 -0.20 -0.30 -0.79 -1.67 -2.73 -3.71 -4.33 -4.45 -14.21 -2.97 -1.45 0.48 2.58 4.55 6.02 6.69 6.45 5.44 3.91 2.22 0.62 -0.75 -1.82 -2.56 12.31 -2.80 -2.31 -1.54 -0.73 -0.02 0.38 0.46 0.23 -0.12 -0.49 -0.80 -1.02 -1.26 -1.59 -2.03 -3.91 -3.10 -3.48 -3.56 -3.18 -2.24 -0.68 1.35 3.57 5.56 6.93 7.38 6.90 5.62 3.91 2.02 23.32 -1.34 -2.58 -3.43 -3.80 -3.65 -2.98 -1.89 -0.67 0.43 1.12 1.28 0.93 0.24 -0.57 -1.27 3.36 -2.11 -2.31 -2.48 -2.68 -2.93 -3.19 -3.33 -3.18 -2.52 -1.30 0.49 2.58 4.64 6.21 7.04 5.23 6.05 4.54 2.67 0.70 -1.20 -2.81 -3.95 -4.45 -4.23 -3.34 -2.07 -0.76 0.21 0.69 0.73 -1.46 0.30 0.19 0.16 0.10 -0.08 -0.40 -0.83 -1.32 -1.86 -2.38 -2.83 -3.05 -2.83 -2.05 -0.65 -17.82 3.07 4.68 5.67 5.89 5.35 4.23 2.73 1.10 -0.49 -1.89 -2.98 -3.64 -3.80 -3.44 -2.64 -5.55 -0.48 0.40 0.89 0.96 0.73 0.37 0.05 -0.11 -0.22 -0.36 -0.71 -1.26 -2.01 -2.78 -3.42 -17.24 -3.57 -2.76 -1.27 0.79 3.10 5.23 6.69 7.20 6.73 5.54 3.92 2.16 0.45 -1.14 -2.53 9.72 -4.14 -4.09 -3.43 -2.27 -0.90 0.39 1.27 1.58 1.29 0.56 -0.33 -1.09 -1.55 -1.69 -1.65 -7.94 -1.77 -2.16 -2.67 -3.16 -3.34 -2.98 -1.87 -0.01 2.35 4.83 6.85 7.97 8.01 7.05 5.46 20.18 1.72 0.01 -1.45 -2.67 -3.57 -4.03 -3.93 -3.26 -2.16 -0.88 0.29 1.06 1.31 1.06 0.48 3.92 -0.84 -1.27 -1.51 -1.62 -1.74 -1.97 -2.33 -2.82 -3.37 -3.75 -3.72 -3.09 -1.73 0.23 2.54 -18.33 6.45 7.29 7.19 6.28 4.78 3.03 1.27 -0.31 -1.59 -2.46 -2.88 -2.76 -2.18 -1.23 -0.16 5.15 1.35 1.47 1.20 0.66 0.00 -0.61 -1.12 -1.50 -1.79 -1.98 -2.17 -2.44 -2.83 -3.39 -3.98 -16.40 -4.38 -3.70 -2.25 -0.16 2.22 4.45 6.17 7.15 7.30 6.69 5.46 3.84 2.01 0.24 -1.30 14.91 -3.05 -3.12 -2.69 -1.88 -0.86 0.14 0.94 1.31 1.22 0.72 -0.02 -0.80 -1.48 -2.00 -2.36 -1.66 -2.87 -3.06 -3.20 -3.30 -3.35 -3.29 -2.97 -2.23 -0.94 0.88 2.97 4.94 6.39 7.06 6.92 8.40 4.88 3.38 1.74 0.07 -1.50 -2.79 -3.52 -3.60 -3.03 -2.01 -0.89 -0.03 0.43 0.44 0.17 1.98 -0.42 -0.53 -0.53 -0.51 -0.56 -0.75 -1.08 -1.57 -2.17 -2.78 -3.20 -3.18 -2.53 -1.17 0.76 -15.35 4.78 6.03 6.47 6.10 5.17 3.85 2.37 0.86 -0.63 -2.01 -3.16 -3.91 -4.13 -3.76 -2.84 -1.77 -0.39 0.54 0.96 0.81 0.26 -0.44 -1.06 -1.40 -1.47 -1.39 -1.30 -1.37 -1.64 -2.12 -2.73 -17.72 -3.31 -2.72 -1.29 0.85 3.34 5.61 7.12 7.62 7.15 5.95 4.40 2.79 1.26 -0.09 -1.21 17.71 -2.48 -2.51 -2.14 -1.48 -0.73 -0.04 0.36 0.41 0.11 -0.44 -1.04 -1.55 -1.87 -2.00 -2.05 -1.84 -2.19 -2.38 -2.68 -3.08 -3.53 -3.83 -3.71 -2.83 -1.10 1.30 3.96 6.27 7.72 8.09 7.45 13.72 4.42 2.72 1.19 -0.11 -1.12 -1.86 -2.26 -2.35 -2.12 -1.64 -0.98 -0.30 0.21 0.44 0.32 10.23 -0.56 -0.99 -1.31 -1.50 -1.63 -1.78 -1.95 -2.14 -2.33 -2.51 -2.78 -3.12 -3.46 -3.59 -3.19 -24.63 -0.03 2.52 5.14 7.19 8.24 8.13 7.06 5.42 3.68 2.06 0.61 -0.66 -1.76 -2.54 -2.83 15.06 -1.75 -0.74 0.16 0.66 0.64 0.23 -0.35 -0.88 -1.16 -1.22 -1.14 -1.10 -1.20 -1.49 -1.85 1.74 -2.18 -1.97 -1.55 -1.12 -0.83 -0.85 -1.21 -1.81 -2.54 -3.13 -3.33 -2.88 -1.66 0.27 2.61 -15.53 6.64 7.44 7.16 6.02 4.41 2.76 1.30 0.14 -0.76 -1.47 -1.99 -2.22 -2.06 -1.51 -0.68 9.83 0.83 1.07 0.93 0.53 0.04 -0.35 -0.53 -0.57 -0.60 -0.69 -0.92 -1.27 -1.62 -1.89 -1.97 0.95 -1.63 -1.37 -1.20 -1.19 -1.35 -1.63 -2.00 -2.40 -2.78 -3.00 -2.87 -2.14 -0.75 1.24 3.44 -13.37 6.34 6.33 5.40 3.94 2.40 1.05 -0.03 -0.90 -1.63 -2.15 -2.27 -1.87 -0.91 0.33 1.52 6.51 2.52 2.17 1.46 0.68 -0.01 -0.56 -1.00 -1.41 -1.85 -2.25 -2.55 -2.64 -2.51 -2.19 -1.76 -6.72 -0.98 -0.72 -0.64 -0.75 -1.07 -1.59 -2.16 -2.54 -2.47 -1.73 -0.33 1.52 3.43 4.96 5.86 0.04 5.39 4.30 2.87 1.29 -0.26 -1.58 -2.48 -2.81 -2.57 -1.88 -0.96 -0.10 0.55 0.87 0.90 4.30 0.41 0.08 -0.22 -0.50 -0.73 -0.96 -1.20 -1.45 -1.69 -1.84 -1.92 -1.86 -1.71 -1.50 -1.27 -13.18 -1.08 -1.26 -1.61 -1.97 -2.11 -1.69 -0.57 1.17 3.23 5.07 6.28 6.60 6.03 4.85 3.38 15.04 0.59 -0.52 -1.39 -2.06 -2.44 -2.48 -2.16 -1.53 -0.75 0.01 0.53 0.77 0.71 0.49 0.21 5.00 -0.23 -0.50 -0.91 -1.45 -2.01 -2.44 -2.59 -2.42 -2.01 -1.52 -1.06 -0.80 -0.78 -1.02 -1.52 -18.43 -2.70 -2.83 -2.18 -0.64 1.60 4.06 6.14 7.33 7.43 6.63 5.26 3.72 2.24 0.91 -0.30 16.89 -2.10 -2.46 -2.29 -1.64 -0.76 0.10 0.62 0.73 0.43 -0.05 -0.53 -0.83 -0.97 -1.06 -1.18 3.45 -1.80 -2.13 -2.31 -2.29 -2.11 -1.84 -1.58 -1.40 -1.35 -1.50 -1.83 -2.36 -2.89 -3.10 -2.67 -29.11 0.65 3.10 5.43 7.07 7.73 7.35 6.24 4.70 3.07 1.48 0.06 -1.21 -2.18 -2.77 -2.84 6.38 -1.55 -0.56 0.32 0.86 1.00 0.80 0.44 0.08 -0.23 -0.52 -0.84 -1.26 -1.76 -2.22 -2.52 -4.18 -2.41 -2.08 -1.69 -1.39 -1.26 -1.35 -1.65 -2.08 -2.51 -2.70 -2.47 -1.63 -0.17 1.78 3.92 -16.01 7.14 7.52 6.90 5.45 3.51 1.49 -0.32 -1.70 -2.55 -2.89 -2.78 -2.28 -1.50 -0.57 0.38 2.94 1.64 1.79 1.60 1.17 0.57 -0.10 -0.79 -1.48 -2.13 -2.70 -3.06 -3.15 -2.95 -2.57 -2.18 -13.40 -2.16 -2.67 -3.28 -3.63 -3.37 -2.29 -0.41 1.97 4.37 6.36 7.56 7.84 7.22 5.86 4.10 16.24 0.35 -1.15 -2.27 -2.91 -3.17 -3.09 -2.74 -2.15 -1.36 -0.43 0.44 1.09 1.32 1.03 0.30 0.87 -1.51 -2.12 -2.38 -2.35 -2.22 -2.18 -2.31 -2.59 -2.94 -3.27 -3.52 -3.63 -3.52 -3.05 -2.10 -39.45 1.24 3.16 4.81 5.92 6.50 6.62 6.48 6.07 5.16 3.53 1.22 -1.29 -3.08 -3.18 -1.11 5.51 7.77 11.86 13.54 11.79 6.55 -1.08 -9.15 -15.57 -18.65 -17.88 -13.97 -8.54 -3.35 0.49 2.86 -23.33 6.14 8.07 9.68 9.86 7.86 3.77 -1.33 -5.87 -8.69 -9.50 -8.69 -6.90 -4.44 -1.48 1.41 -20.43 1.75 -3.20 -10.91 -18.38 -21.87 -18.69 -8.90 4.48 16.93 24.66 26.28 23.15 18.04 13.44 10.39 45.10 6.26 3.42 -0.01 -3.06 -4.75 -4.68 -3.30 -1.62 -0.70 -1.10 -2.56 -4.42 -5.81 -6.19 -5.50 7.01 -2.45 -0.94 0.30 1.42 2.58 3.89 5.22 6.30 6.80 6.44 5.12 3.01 0.43 -2.09 -4.03 34.01 -4.93 -4.03 -2.74 -1.47 -0.52 -0.01 0.17 0.15 0.08 -0.01 -0.16 -0.44 -0.88 -1.41 -1.99 13.30 -2.96 -3.22 -3.31 -3.24 -3.04 -2.86 -2.80 -2.91 -3.08 -3.04 -2.49 -1.24 0.70 2.97 5.08 -5.59 7.12 6.80 5.74 4.31 2.72 1.16 -0.29 -1.52 -2.41 -2.82 -2.72 -2.16 -1.29 -0.38 0.36 9.79 0.75 0.42 -0.17 -0.83 -1.46 -1.97 -2.33 -2.59 -2.71 -2.73 -2.63 -2.42 -2.16 -2.00 -2.00 -17.22 -2.37 -2.26 -1.53 -0.06 2.03 4.36 6.43 7.81 8.26 7.77 6.51 4.75 2.81 0.89 -0.84 25.08 -3.27 -3.74 -3.65 -2.96 -1.84 -0.56 0.61 1.41 1.69 1.49 0.93 0.16 -0.72 -1.57 -2.27 8.07 -2.83 -2.61 -2.16 -1.73 -1.57 -1.79 -2.41 -3.25 -3.97 -4.29 -3.86 -2.61 -0.60 1.86 4.30 -13.16 7.44 7.59 6.79 5.29 3.43 1.52 -0.16 -1.45 -2.27 -2.61 -2.50 -2.03 -1.34 -0.51 0.27 7.21 1.27 1.35 1.10 0.63 0.00 -0.68 -1.24 -1.60 -1.74 -1.70 -1.65 -1.64 -1.76 -1.95 -2.21 -7.13 -2.88 -3.26 -3.48 -3.28 -2.38 -0.68 1.65 4.11 6.15 7.29 7.35 6.46 4.98 3.24 1.53 19.64 -1.35 -2.34 -2.92 -3.01 -2.61 -1.85 -0.93 -0.07 0.57 0.93 1.04 0.93 0.59 0.02 -0.72 6.44 -2.11 -2.47 -2.54 -2.39 -2.13 -1.90 -1.70 -1.60 -1.63 -1.84 -2.18 -2.48 -2.41 -1.65 -0.11 -20.69 4.26 6.04 6.92 6.80 5.78 4.25 2.46 0.73 -0.79 -1.96 -2.73 -2.98 -2.73 -2.09 -1.20 1.81 0.51 0.98 1.15 1.01 0.70 0.25 -0.27 -0.81 -1.35 -1.83 -2.20 -2.39 -2.34 -2.11 -1.80 -10.30 -1.65 -2.04 -2.63 -3.18 -3.29 -2.65 -1.15 0.97 3.32 5.34 6.62 7.00 6.56 5.50 4.05 14.95 0.91 -0.49 -1.59 -2.34 -2.65 -2.59 -2.19 -1.53 -0.71 0.14 0.86 1.25 1.22 0.73 -0.05 5.04 -1.50 -1.82 -1.86 -1.76 -1.72 -1.78 -1.93 -2.05 -2.09 -2.08 -2.20 -2.51 -2.90 -3.09 -2.67 -28.29 0.79 3.36 5.79 7.41 7.93 7.33 5.88 4.00 2.04 0.25 -1.24 -2.36 -3.00 -3.19 -2.89 1.65 -1.20 -0.20 0.61 1.10 1.23 1.04 0.68 0.24 -0.25 -0.76 -1.32 -1.86 -2.26 -2.36 -2.18 -7.66 -1.49 -1.40 -1.67 -2.22 -2.91 -3.43 -3.55 -2.99 -1.67 0.40 2.89 5.32 7.17 8.00 7.65 8.81 4.55 2.69 1.06 -0.24 -1.22 -1.98 -2.46 -2.57 -2.22 -1.48 -0.53 0.32 0.89 1.08 1.02 8.58 0.70 0.50 0.20 -0.33 -1.07 -1.87 -2.52 -2.88 -2.87 -2.62 -2.25 -2.00 -1.97 -2.24 -2.68 -18.40 -3.14 -2.57 -1.25 0.68 2.85 4.84 6.21 6.80 6.59 5.73 4.45 2.89 1.23 -0.40 -1.81 11.92 -3.21 -3.08 -2.50 -1.66 -0.76 0.03 0.61 0.93 0.96 0.78 0.45 0.05 -0.34 -0.66 -0.92 1.49 -1.26 -1.36 -1.44 -1.53 -1.72 -2.05 -2.54 -3.12 -3.56 -3.60 -2.98 -1.59 0.47 2.86 5.09 -10.14 7.40 7.06 5.89 4.20 2.32 0.55 -0.96 -2.10 -2.84 -3.10 -2.94 -2.39 -1.59 -0.68 0.09 1.39 0.77 0.57 0.06 -0.53 -1.07 -1.44 -1.55 -1.54 -1.49 -1.55 -1.77 -2.14 -2.63 -3.13 -3.50 -23.18 -3.34 -2.48 -1.01 0.99 3.25 5.37 6.91 7.60 7.36 6.25 4.61 2.73 0.89 -0.66 -1.84 10.89 -2.86 -2.73 -2.28 -1.57 -0.77 -0.02 0.55 0.81 0.73 0.36 -0.18 -0.72 -1.12 -1.31 -1.31 -2.78 -1.24 -1.37 -1.67 -2.11 -2.66 -3.22 -3.62 -3.65 -2.99 -1.50 0.74 3.38 5.85 7.61 8.25 6.79 6.42 4.57 2.57 0.68 -0.97 -2.30 -3.18 -3.51 -3.25 -2.51 -1.43 -0.29 0.65 1.21 1.30 7.68 0.24 -0.59 -1.39 -2.01 -2.40 -2.62 -2.74 -2.86 -2.97 -3.10 -3.20 -3.27 -3.28 -3.09 -2.53 -29.53 0.38 2.64 5.01 6.94 8.05 8.20 7.45 6.10 4.44 2.67 0.95 -0.63 -1.91 -2.72 -2.96 12.45 -1.88 -0.98 -0.19 0.37 0.60 0.55 0.28 -0.17 -0.74 -1.35 -1.88 -2.27 -2.46 -2.48 -2.45 -5.08 -2.65 -3.02 -3.42 -3.65 -3.38 -2.43 -0.76 1.42 3.62 5.43 6.46 6.59 5.96 4.89 3.62 15.92 1.00 -0.35 -1.70 -2.90 -3.66 -3.84 -3.31 -2.25 -0.87 0.46 1.52 2.14 2.28 2.03 1.51 8.82 0.16 -0.43 -0.91 -1.29 -1.62 -1.92 -2.27 -2.69 -3.10 -3.39 -3.32 -2.64 -1.21 0.93 3.46 -5.58 7.54 8.16 7.65 6.25 4.37 2.39 0.62 -0.91 -2.17 -3.17 -3.82 -4.06 -3.78 -3.07 -2.07 7.31 -0.25 0.16 0.19 -0.04 -0.36 -0.66 -0.87 -1.05 -1.26 -1.53 -1.83 -2.15 -2.49 -2.86 -3.30 -14.75 -4.02 -3.77 -2.77 -0.94 1.54 4.14 6.33 7.63 7.85 7.07 5.64 3.92 2.22 0.70 -0.61 18.46 -2.51 -2.94 -2.88 -2.39 -1.58 -0.75 -0.09 0.20 0.13 -0.20 -0.62 -0.99 -1.20 -1.23 -1.19 -0.93 -1.21 -1.45 -1.84 -2.35 -2.86 -3.24 -3.33 -3.01 -2.13 -0.64 1.33 3.46 5.37 6.61 6.92 7.00 4.95 3.19 1.36 -0.34 -1.75 -2.81 -3.44 -3.54 -3.11 -2.22 -1.09 0.01 0.81 1.19 1.14 2.12 0.24 -0.37 -0.90 -1.35 -1.69 -1.98 -2.26 -2.63 -3.08 -3.58 -3.92 -3.87 -3.20 -1.78 0.37 -24.99 5.38 7.29 8.28 8.22 7.28 5.79 4.08 2.41 0.86 -0.54 -1.75 -2.66 -3.14 -3.03 -2.45 9.42 -0.75 -0.18 0.03 -0.11 -0.48 -0.92 -1.33 -1.61 -1.76 -1.84 -1.91 -2.07 -2.37 -2.80 -3.27 -15.56 -3.60 -3.05 -1.88 -0.18 1.85 3.92 5.67 6.79 7.15 6.73 5.70 4.30 2.74 1.17 -0.30 19.85 -2.63 -3.23 -3.26 -2.73 -1.74 -0.61 0.35 0.83 0.75 0.22 -0.51 -1.18 -1.55 -1.57 -1.32 0.66 -0.89 -1.08 -1.54 -2.16 -2.74 -3.06 -3.01 -2.44 -1.35 0.22 2.12 4.04 5.65 6.59 6.67 13.56 4.42 2.60 0.76 -0.84 -2.08 -2.89 -3.24 -3.15 -2.67 -1.85 -0.85 0.12 0.90 1.33 1.35 8.46 0.36 -0.42 -1.16 -1.75 -2.06 -2.14 -2.09 -2.05 -2.15 -2.43 -2.86 -3.29 -3.57 -3.53 -2.92 -25.22 0.31 2.69 5.04 6.82 7.60 7.25 5.94 4.11 2.23 0.58 -0.72 -1.72 -2.50 -3.02 -3.19 3.31 -2.15 -1.11 -0.03 0.83 1.28 1.28 0.95 0.43 -0.08 -0.51 -0.80 -1.02 -1.22 -1.50 -1.82 -4.23 -2.23 -2.26 -2.24 -2.29 -2.39 -2.34 -1.85 -0.67 1.20 3.40 5.40 6.65 6.84 6.02 4.51 16.25 0.97 -0.56 -1.80 -2.69 -3.15 -3.14 -2.65 -1.87 -0.98 -0.28 0.11 0.16 -0.07 -0.40 -0.68 -1.60 -0.81 -0.73 -0.68 -0.70 -0.88 -1.11 -1.41 -1.78 -2.18 -2.63 -3.01 -3.06 -2.50 -1.16 0.87 -20.15 5.30 6.61 6.89 6.21 4.88 3.35 1.90 0.68 -0.34 -1.19 -1.89 -2.35 -2.49 -2.23 -1.65 2.72 0.05 0.72 0.98 0.78 0.15 -0.64 -1.32 -1.64 -1.61 -1.30 -1.01 -0.94 -1.16 -1.64 -2.25 -10.95 -3.32 -3.54 -3.33 -2.51 -0.99 1.13 3.44 5.48 6.71 6.92 6.20 4.90 3.38 1.92 0.52 15.16 -2.06 -3.03 -3.48 -3.20 -2.26 -0.96 0.24 1.01 1.22 1.00 0.61 0.20 -0.10 -0.34 -0.55 2.68 -1.01 -1.26 -1.59 -1.94 -2.27 -2.50 -2.54 -2.42 -2.15 -1.76 -1.14 -0.18 1.28 3.11 4.99 -2.31 6.86 6.19 4.57 2.46 0.40 -1.25 -2.38 -3.09 -3.45 -3.51 -3.20 -2.46 -1.36 -0.11 0.97 -0.00 1.89 1.72 1.33 0.87 0.37 -0.14 -0.68 -1.20 -1.64 -1.91 -2.05 -2.16 -2.37 -2.71 -3.11 -15.20 -3.29 -2.62 -1.30 0.48 2.43 4.18 5.41 5.95 5.75 4.93 3.66 2.11 0.46 -1.09 -2.39 6.17 -3.71 -3.55 -2.90 -1.88 -0.71 0.41 1.29 1.75 1.74 1.31 0.62 -0.14 -0.74 -1.06 -1.13 -3.59 -1.04 -1.17 -1.49 -1.89 -2.27 -2.53 -2.52 -2.21 -1.44 -0.21 1.47 3.33 5.06 6.27 6.67 8.70 5.11 3.57 1.85 0.20 -1.28 -2.47 -3.25 -3.49 -3.18 -2.44 -1.50 -0.60 0.04 0.35 0.35 2.10 -0.17 -0.50 -0.80 -1.03 -1.19 -1.30 -1.41 -1.57 -1.83 -2.22 -2.64 -3.04 -3.20 -2.91 -2.04 -24.27 1.48 3.61 5.45 6.59 6.83 6.19 4.94 3.36 1.70 0.15 -1.21 -2.29 -2.96 -3.07 -2.59 2.25 -0.53 0.47 1.13 1.32 1.15 0.73 0.21 -0.29 -0.75 -1.12 -1.41 -1.60 -1.72 -1.89 -2.15 -6.79 -3.08 -3.49 -3.55 -3.03 -1.86 -0.08 1.99 4.02 5.58 6.42 6.48 5.84 4.72 3.28 1.74 18.35 -1.31 -2.52 -3.30 -3.48 -3.07 -2.22 -1.16 -0.15 0.59 1.00 1.03 0.78 0.32 -0.23 -0.73 2.82 -1.23 -1.22 -1.16 -1.23 -1.54 -2.11 -2.79 -3.36 -3.51 -3.01 -1.81 0.02 2.15 4.17 5.74 -1.51 6.54 5.78 4.48 2.85 1.10 -0.58 -2.03 -3.12 -3.73 -3.77 -3.26 -2.28 -1.05 0.18 1.12 2.29 1.48 0.98 0.27 -0.38 -0.82 -1.04 -1.14 -1.25 -1.47 -1.77 -2.11 -2.39 -2.61 -2.72 -2.65 -17.55 -1.28 0.22 2.13 4.05 5.54 6.25 6.07 5.16 3.83 2.37 0.95 -0.41 -1.64 -2.67 -3.33 6.26 -2.89 -1.87 -0.64 0.45 1.10 1.27 0.99 0.50 -0.03 -0.45 -0.74 -0.92 -1.01 -1.07 -1.12 -1.34 -1.31 -1.55 -1.93 -2.35 -2.65 -2.61 -2.01 -0.79 0.91 2.82 4.48 5.55 5.83 5.35 4.31 15.67 1.49 0.05 -1.24 -2.31 -3.02 -3.31 -3.07 -2.42 -1.47 -0.46 0.37 0.85 0.89 0.59 0.05 2.17 -0.93 -1.23 -1.42 -1.59 -1.80 -2.05 -2.31 -2.58 -2.80 -2.94 -2.85 -2.36 -1.30 0.34 2.37 -16.87 6.02 6.87 6.78 5.94 4.57 3.01 1.44 0.01 -1.28 -2.35 -3.13 -3.49 -3.35 -2.66 -1.57 -0.40 0.72 1.32 1.39 0.99 0.38 -0.17 -0.54 -0.72 -0.82 -1.01 -1.34 -1.83 -2.39 -2.94 -3.41 -14.48 -3.71 -3.21 -2.04 -0.22 2.01 4.24 5.94 6.77 6.61 5.64 4.24 2.74 1.42 0.33 -0.57 14.37 -1.96 -2.33 -2.34 -1.92 -1.20 -0.36 0.37 0.76 0.74 0.37 -0.19 -0.73 -1.15 -1.38 -1.46 0.07 -1.62 -1.80 -2.00 -2.22 -2.42 -2.57 -2.57 -2.29 -1.53 -0.20 1.57 3.47 5.08 6.06 6.24 8.98 4.68 3.38 1.90 0.37 -1.16 -2.46 -3.33 -3.58 -3.17 -2.23 -1.08 0.01 0.77 1.12 1.06 5.94 0.15 -0.36 -0.78 -1.07 -1.25 -1.36 -1.48 -1.58 -1.71 -1.87 -2.11 -2.40 -2.67 -2.75 -2.39 -19.19 -0.05 1.75 3.55 5.02 5.88 6.04 5.55 4.58 3.30 1.88 0.53 -0.68 -1.63 -2.24 -2.48 9.46 -1.88 -1.15 -0.36 0.35 0.79 0.91 0.67 0.24 -0.28 -0.76 -1.15 -1.45 -1.71 -1.95 -2.15 -2.66 -2.23 -2.13 -2.04 -2.04 -2.14 -2.22 -2.00 -1.21 0.21 2.14 4.13 5.68 6.39 6.18 5.26 15.25 2.54 1.20 -0.06 -1.23 -2.30 -3.05 -3.33 -3.06 -2.29 -1.25 -0.18 0.68 1.21 1.37 1.25 7.66 0.45 -0.06 -0.58 -1.06 -1.46 -1.70 -1.79 -1.73 -1.65 -1.64 -1.83 -2.20 -2.65 -2.93 -2.77 -17.95 -0.64 1.13 2.98 4.46 5.30 5.34 4.67 3.50 2.13 0.76 -0.42 -1.34 -1.96 -2.24 -2.19 1.73 -1.18 -0.45 0.22 0.70 0.88 0.72 0.34 -0.18 -0.67 -1.00 -1.14 -1.07 -0.89 -0.69 -0.58 -3.93 -0.91 -1.32 -1.78 -2.20 -2.49 -2.45 -1.94 -0.90 0.66 2.52 4.29 5.64 6.30 6.22 5.55 17.73 3.19 1.81 0.42 -0.89 -1.92 -2.49 -2.47 -1.86 -0.90 0.12 0.85 1.09 0.78 0.01 -0.97 12.58 -2.59 -2.87 -2.80 -2.62 -2.56 -2.87 -3.56 -4.52 -5.46 -6.13 -6.36 -6.10 -5.41 -4.32 -2.89 -49.54 1.08 3.41 5.60 7.35 8.29 8.25 7.28 5.63 3.74 2.00 0.72 -0.08 -0.48 -0.63 -0.68 1.32 -0.42 -0.01 0.56 1.17 1.59 1.69 1.42 0.90 0.32 -0.16 -0.45 -0.56 -0.59 -0.65 -0.84 4.16 -1.50 -1.90 -2.26 -2.56 -2.73 -2.58 -1.96 -0.75 0.96 2.86 4.55 5.62 5.90 5.40 4.33 20.54 1.59 0.30 -0.81 -1.70 -2.34 -2.68 -2.76 -2.59 -2.22 -1.69 -1.07 -0.41 0.15 0.46 0.47 5.42 -0.36 -0.92 -1.40 -1.70 -1.82 -1.78 -1.69 -1.59 -1.53 -1.59 -1.76 -2.01 -2.21 -2.09 -1.43 -18.57 1.72 3.72 5.44 6.43 6.51 5.70 4.25 2.50 0.81 -0.61 -1.59 -2.14 -2.30 -2.13 -1.72 6.87 -0.51 0.18 0.77 1.21 1.36 1.19 0.79 0.28 -0.17 -0.45 -0.56 -0.61 -0.64 -0.72 -0.79 7.38 -0.82 -0.84 -1.04 -1.37 -1.71 -1.78 -1.25 -0.06 1.75 3.81 5.65 6.87 7.17 6.51 4.99 38.15 0.62 -1.43 -2.91 -3.66 -3.65 -3.07 -2.20 -1.28 -0.47 0.14 0.53 0.70 0.66 0.38 -0.03 22.02 -0.76 -0.90 -0.96 -1.12 -1.67 -2.63 -3.92 -5.20 -6.12 -6.40 -5.93 -4.84 -3.39 -1.80 -0.30 -22.86 2.23 3.24 3.94 4.18 3.71 2.48 0.55 -1.68 -3.93 -6.13 -8.59 -11.81 -15.97 -20.59 -24.57 -122.31 -25.41 -21.02 -13.88 -4.78 5.45 16.25 26.87 36.11 42.23 43.54 39.32 30.58 19.92 10.59 5.01 92.09 4.87 6.13 5.18 1.40 -4.09 -9.23 -12.26 -12.61 -11.05 -8.98 -7.53 -7.06 -7.15 -7.01 -6.24 11.52 -3.62 -2.87 -2.89 -3.52 -4.18 -4.41 -3.81 -2.52 -0.89 0.54 1.34 1.36 0.76 -0.08 -0.82 -15.31 -1.23 -0.93 -0.46 0.17 0.89 1.62 2.28 2.77 3.11 3.38 3.65 3.86 3.71 2.90 1.21 10.45 -3.71 -5.69 -6.61 -6.31 -5.13 -3.54 -2.01 -0.70 0.39 1.41 2.34 3.01 3.24 2.91 2.09 -6.83 0.01 -0.73 -1.11 -1.17 -1.00 -0.71 -0.32 0.21 0.85 1.59 2.27 2.78 3.01 2.96 2.75 7.01 2.20 1.95 1.65 1.22 0.70 0.19 -0.18 -0.32 -0.29 -0.24 -0.26 -0.44 -0.72 -1.01 -1.19 9.10 -0.91 -0.44 0.16 0.66 0.80 0.36 -0.63 -1.93 -3.04 -3.58 -3.33 -2.41 -1.15 0.02 0.88 -4.07 1.63 1.79 1.92 1.97 1.89 1.57 1.01 0.33 -0.35 -0.79 -0.82 -0.38 0.37 1.21 1.86 11.32 2.23 2.14 2.03 1.89 1.57 0.94 0.03 -0.96 -1.77 -2.16 -2.20 -2.01 -1.83 -1.69 -1.47 7.00 -0.42 0.16 0.38 -0.05 -1.05 -2.25 -3.18 -3.49 -3.10 -2.31 -1.51 -1.03 -0.94 -1.03 -1.03 -14.53 0.02 0.90 1.67 2.07 2.03 1.61 0.96 0.33 -0.09 -0.25 -0.09 0.24 0.61 0.89 1.07 -1.35 1.42 1.82 2.38 2.99 3.44 3.54 3.18 2.43 1.47 0.50 -0.32 -0.90 -1.27 -1.50 -1.59 14.69 -1.23 -0.62 0.22 1.12 1.81 2.07 1.91 1.46 0.97 0.63 0.40 0.13 -0.33 -1.07 -2.00 17.26 -3.58 -3.95 -4.00 -3.86 -3.68 -3.55 -3.53 -3.61 -3.80 -4.04 -4.32 -4.58 -4.73 -4.68 -4.29 -46.48 -2.41 -1.03 0.39 1.63 2.48 2.85 2.84 2.66 2.45 2.41 2.53 2.65 2.64 2.43 2.02 -18.34 1.44 1.59 2.02 2.45 2.61 2.34 1.72 1.02 0.47 0.23 0.24 0.31 0.27 0.06 -0.25 -2.34 -0.65 -0.71 -0.77 -1.01 -1.44 -1.98 -2.54 -2.96 -3.19 -3.16 -2.95 -2.52 -1.89 -0.93 0.41 -26.53 3.96 5.64 6.75 7.03 6.39 5.04 3.35 1.72 0.46 -0.33 -0.70 -0.75 -0.63 -0.40 -0.16 10.87 0.13 0.10 0.01 -0.15 -0.24 -0.30 -0.30 -0.32 -0.40 -0.55 -0.75 -0.89 -0.93 -0.84 -0.67 4.26 -0.42 -0.41 -0.47 -0.49 -0.44 -0.29 -0.12 -0.04 -0.09 -0.33 -0.68 -1.11 -1.60 -2.09 -2.52 -9.59 -2.62 -1.99 -0.86 0.56 1.97 3.02 3.52 3.48 3.06 2.54 2.11 1.76 1.43 0.95 0.32 9.27 -0.93 -1.12 -0.86 -0.24 0.41 0.88 0.95 0.68 0.24 -0.16 -0.40 -0.52 -0.62 -0.81 -1.10 4.29 -1.48 -1.30 -0.85 -0.33 0.02 0.01 -0.34 -0.87 -1.30 -1.40 -1.14 -0.63 -0.16 0.04 -0.17 -6.29 -1.36 -1.95 -2.39 -2.61 -2.62 -2.38 -1.74 -0.60 0.99 2.76 4.31 5.22 5.32 4.64 3.56 7.28 1.48 0.78 0.21 -0.31 -0.78 -1.08 -1.07 -0.74 -0.19 0.34 0.65 0.67 0.46 0.21 0.06 8.03 0.16 0.20 0.10 -0.17 -0.52 -0.85 -1.08 -1.19 -1.17 -1.06 -0.84 -0.57 -0.28 -0.06 0.02 0.66 -0.24 -0.44 -0.59 -0.63 -0.62 -0.60 -0.69 -0.87 -1.12 -1.27 -1.21 -0.84 -0.15 0.69 1.51 -4.30 2.41 2.46 2.34 2.08 1.68 1.09 0.31 -0.54 -1.24 -1.56 -1.43 -0.97 -0.44 -0.10 -0.02 1.59 -0.38 -0.43 -0.28 -0.02 0.23 0.32 0.18 -0.13 -0.56 -0.95 -1.22 -1.28 -1.13 -0.83 -0.51 -5.75 -0.38 -0.61 -0.84 -0.97 -0.88 -0.66 -0.41 -0.28 -0.35 -0.57 -0.90 -1.19 -1.35 -1.22 -0.74 -16.94 1.41 2.76 3.92 4.63 4.72 4.24 3.35 2.25 1.11 0.06 -0.84 -1.50 -1.91 -2.01 -1.86 1.84 -1.17 -0.83 -0.58 -0.47 -0.50 -0.64 -0.82 -1.01 -1.16 -1.23 -1.29 -1.38 -1.55 -1.82 -2.12 -17.18 -2.72 -2.88 -2.93 -2.90 -2.84 -2.81 -2.90 -3.17 -3.56 -3.95 -4.03 -3.44 -1.89 0.70 3.95 -45.30 9.73 10.76 10.05 7.85 4.75 1.50 -1.17 -2.55 -2.22 0.02 3.96 8.80 13.36 16.42 17.06 68.22 11.49 7.16 3.37 0.81 -0.42 -0.73 -0.68 -0.83 -1.59 -3.12 -5.46 -8.32 -11.12 -13.16 -13.86 18.74 -11.03 -8.67 -6.66 -5.45 -4.97 -4.87 -4.75 -4.41 -3.83 -2.96 -1.76 -0.14 1.85 3.88 5.53 -23.11 6.33 5.55 4.44 3.34 2.45 1.71 1.06 0.46 -0.09 -0.43 -0.55 -0.50 -0.43 -0.43 -0.49 -1.20 -0.35 0.02 0.52 0.99 1.25 1.19 0.87 0.39 -0.06 -0.40 -0.69 -1.01 -1.40 -1.86 -2.28 -6.62 -2.75 -2.79 -2.75 -2.59 -2.18 -1.38 -0.15 1.45 3.07 4.46 5.30 5.52 5.24 4.59 3.82 15.28 2.36 1.80 1.39 1.04 0.75 0.51 0.41 0.50 0.86 1.39 1.88 2.15 1.99 1.42 0.61 34.13 -0.86 -1.28 -1.55 -1.84 -2.24 -2.77 -3.35 -3.88 -4.26 -4.41 -4.33 -4.03 -3.46 -2.63 -1.58 -8.76 0.73 1.73 2.52 3.07 3.41 3.41 2.99 2.02 0.47 -1.50 -3.60 -5.42 -6.68 -7.27 -7.30 -27.06 -6.30 -5.61 -4.90 -4.24 -3.63 -3.17 -2.81 -2.45 -1.88 -1.03 0.09 1.27 2.13 2.44 2.07 -53.83 0.29 -0.47 -0.83 -0.82 -0.58 -0.18 0.37 1.20 2.38 3.80 5.09 5.86 5.77 4.80 3.21 -22.46 0.04 -0.85 -1.19 -1.13 -0.87 -0.51 -0.06 0.56 1.33 2.23 3.08 3.76 4.13 4.14 3.82 -0.78 2.36 1.42 0.50 -0.27 -0.82 -1.15 -1.33 -1.50 -1.76 -2.20 -2.75 -3.37 -3.95 -4.25 -4.14 -27.32 -1.79 0.36 2.87 5.26 7.17 8.34 8.69 8.34 7.44 6.23 4.79 3.31 1.89 0.68 -0.23 35.23 -1.04 -1.05 -0.91 -0.73 -0.53 -0.39 -0.35 -0.45 -0.75 -1.21 -1.78 -2.34 -2.83 -3.14 -3.31 11.00 -3.57 -3.84 -4.26 -4.79 -5.30 -5.55 -5.31 -4.34 -2.61 -0.23 2.48 5.09 7.19 8.47 8.84 11.60 7.18 5.71 4.24 2.96 1.90 0.96 0.03 -0.89 -1.68 -2.12 -2.02 -1.44 -0.60 0.14 0.53 26.94 -0.05 -0.72 -1.38 -1.89 -2.22 -2.41 -2.51 -2.63 -2.82 -3.12 -3.58 -4.13 -4.76 -5.28 -5.57 -21.54 -4.66 -3.24 -1.14 1.43 4.16 6.61 8.38 9.18 8.95 7.87 6.28 4.50 2.79 1.31 0.13 30.24 -1.34 -1.60 -1.61 -1.35 -1.00 -0.60 -0.23 0.07 0.24 0.22 -0.01 -0.45 -1.03 -1.66 -2.22 15.05 -2.87 -2.97 -2.99 -3.01 -3.11 -3.33 -3.69 -4.15 -4.53 -4.61 -4.13 -2.94 -1.03 1.37 3.96 -16.65 8.13 9.17 9.30 8.65 7.31 5.50 3.48 1.50 -0.23 -1.58 -2.41 -2.75 -2.63 -2.08 -1.26 23.17 0.66 1.40 1.80 1.83 1.46 0.82 0.00 -0.83 -1.56 -2.12 -2.47 -2.62 -2.62 -2.49 -2.32 11.92 -2.21 -2.49 -3.03 -3.66 -4.10 -3.96 -2.94 -1.04 1.47 4.03 6.10 7.29 7.49 6.94 5.98 32.63 3.65 2.41 1.05 -0.37 -1.66 -2.62 -3.02 -2.93 -2.45 -1.89 -1.44 -1.22 -1.23 -1.34 -1.45 16.62 -1.52 -1.53 -1.64 -1.87 -2.21 -2.65 -3.04 -3.30 -3.32 -3.15 -2.87 -2.69 -2.71 -3.03 -3.58 -26.63 -4.45 -4.30 -3.53 -2.12 -0.18 2.07 4.38 6.40 7.85 8.54 8.40 7.56 6.25 4.73 3.30 20.36 1.17 0.49 0.01 -0.30 -0.45 -0.41 -0.21 0.06 0.29 0.42 0.38 0.15 -0.16 -0.50 -0.82 19.42 -1.27 -1.47 -1.67 -1.89 -2.13 -2.33 -2.50 -2.62 -2.68 -2.67 -2.61 -2.52 -2.39 -2.29 -2.30 -16.41 -2.91 -3.41 -3.81 -3.76 -3.07 -1.65 0.33 2.58 4.75 6.49 7.61 7.99 7.61 6.60 5.12 17.50 1.88 0.60 -0.30 -0.83 -1.09 -1.15 -1.05 -0.75 -0.31 0.20 0.65 0.93 0.95 0.70 0.23 17.79 -0.96 -1.43 -1.72 -1.81 -1.79 -1.76 -1.80 -1.95 -2.13 -2.29 -2.33 -2.25 -2.13 -2.04 -2.09 -12.92 -2.41 -2.57 -2.67 -2.73 -2.69 -2.50 -2.03 -1.15 0.16 1.84 3.63 5.27 6.46 7.07 7.01 6.12 5.20 3.70 2.06 0.45 -0.90 -1.85 -2.29 -2.28 -1.95 -1.46 -1.01 -0.67 -0.48 -0.37 -0.29 3.78 -0.12 -0.07 -0.10 -0.26 -0.55 -0.97 -1.51 -2.05 -2.49 -2.72 -2.69 -2.39 -1.95 -1.51 -1.17 -17.77 -1.03 -1.27 -1.64 -2.06 -2.39 -2.47 -2.12 -1.23 0.14 1.83 3.56 5.00 5.92 6.23 5.93 1.87 4.31 3.30 2.33 1.41 0.60 -0.06 -0.52 -0.77 -0.78 -0.57 -0.24 0.14 0.46 0.65 0.68 13.35 0.24 -0.19 -0.68 -1.20 -1.66 -2.03 -2.24 -2.27 -2.21 -2.09 -1.97 -1.91 -1.86 -1.81 -1.77 -12.07 -1.89 -2.13 -2.42 -2.62 -2.45 -1.78 -0.52 1.14 2.91 4.37 5.28 5.50 5.17 4.46 3.60 9.25 1.77 0.82 -0.10 -0.90 -1.50 -1.79 -1.80 -1.52 -1.05 -0.52 -0.02 0.34 0.48 0.37 0.12 3.78 -0.44 -0.62 -0.75 -0.88 -1.05 -1.25 -1.44 -1.59 -1.67 -1.75 -1.79 -1.90 -2.05 -2.18 -2.16 -19.56 -1.05 0.17 1.61 3.03 4.12 4.63 4.61 4.14 3.45 2.68 1.90 1.09 0.24 -0.63 -1.41 7.08 -2.15 -2.01 -1.59 -0.99 -0.40 0.08 0.36 0.37 0.22 -0.08 -0.39 -0.66 -0.88 -1.07 -1.25 -4.79 -1.58 -1.70 -1.83 -2.04 -2.35 -2.76 -3.07 -3.03 -2.43 -1.14 0.67 2.68 4.45 5.69 6.23 -0.80 5.73 4.99 4.01 2.80 1.36 -0.10 -1.32 -2.09 -2.29 -2.00 -1.50 -1.02 -0.68 -0.52 -0.45 5.73 -0.36 -0.40 -0.60 -0.97 -1.42 -1.85 -2.10 -2.14 -2.04 -1.99 -2.07 -2.39 -2.80 -3.10 -3.00 -23.85 -1.11 0.56 2.37 4.02 5.25 5.95 6.08 5.71 4.93 3.85 2.61 1.32 0.12 -0.82 -1.41 13.94 -1.52 -1.22 -0.83 -0.47 -0.12 0.18 0.40 0.50 0.38 0.04 -0.44 -0.92 -1.29 -1.51 -1.61 3.75 -2.00 -2.39 -2.89 -3.37 -3.68 -3.79 -3.54 -2.88 -1.79 -0.27 1.54 3.40 4.94 5.88 6.07 4.49 4.38 2.96 1.54 0.30 -0.64 -1.25 -1.59 -1.70 -1.62 -1.37 -0.99 -0.50 -0.02 0.37 0.55 5.41 0.21 -0.18 -0.61 -1.02 -1.40 -1.79 -2.15 -2.44 -2.53 -2.37 -2.06 -1.72 -1.49 -1.46 -1.54 -18.69 -1.25 -0.50 0.73 2.25 3.80 5.05 5.77 5.82 5.24 4.16 2.82 1.44 0.20 -0.74 -1.34 13.17 -1.52 -1.22 -0.72 -0.13 0.46 1.04 1.45 1.68 1.61 1.27 0.72 0.04 -0.62 -1.20 -1.60 12.65 -1.69 -1.39 -0.95 -0.55 -0.37 -0.45 -0.82 -1.32 -1.73 -1.87 -1.65 -1.01 -0.06 1.08 2.22 5.22 3.64 3.56 2.86 1.68 0.25 -1.09 -2.09 -2.63 -2.73 -2.54 -2.20 -1.80 -1.36 -0.88 -0.36 -0.31 0.54 0.69 0.52 0.08 -0.53 -1.16 -1.67 -2.02 -2.21 -2.29 -2.35 -2.41 -2.48 -2.53 -2.52 -23.10 -2.30 -2.09 -1.79 -1.28 -0.46 0.69 2.17 3.71 5.03 5.79 5.82 5.15 4.01 2.72 1.55 6.26 -0.01 -0.45 -0.79 -0.97 -0.92 -0.64 -0.17 0.31 0.60 0.57 0.25 -0.27 -0.82 -1.29 -1.66 -1.97 -2.25 -2.47 -2.59 -2.56 -2.35 -2.09 -1.93 -1.93 -2.10 -2.32 -2.40 -2.18 -1.54 -0.46 1.01 -27.46 4.32 5.69 6.57 6.87 6.56 5.80 4.73 3.50 2.23 0.94 -0.25 -1.23 -1.84 -1.99 -1.71 11.53 -0.69 -0.36 -0.29 -0.35 -0.39 -0.34 -0.20 -0.16 -0.35 -0.82 -1.48 -2.12 -2.50 -2.55 -2.29 -5.23 -1.51 -1.35 -1.44 -1.71 -2.04 -2.23 -2.17 -1.74 -0.91 0.21 1.52 2.83 3.96 4.78 5.21 3.39 4.76 4.01 2.99 1.87 0.75 -0.23 -1.02 -1.56 -1.84 -1.88 -1.69 -1.38 -0.94 -0.46 0.01 7.18 0.66 0.69 0.46 0.01 -0.56 -1.08 -1.41 -1.47 -1.33 -1.10 -1.02 -1.21 -1.66 -2.23 -2.71 -9.72 -2.80 -2.33 -1.53 -0.46 0.84 2.22 3.52 4.49 4.89 4.65 3.81 2.64 1.36 0.17 -0.81 9.33 -2.24 -2.65 -2.78 -2.55 -1.95 -1.10 -0.18 0.63 1.13 1.27 1.03 0.53 -0.18 -0.93 -1.56 -4.15 -2.06 -1.92 -1.66 -1.47 -1.40 -1.50 -1.64 -1.76 -1.74 -1.55 -1.17 -0.52 0.40 1.54 2.74 -14.15 4.25 4.28 3.89 3.31 2.70 2.16 1.60 0.89 0.04 -0.87 -1.61 -1.98 -1.91 -1.48 -0.86 -0.04 0.05 0.13 0.01 -0.16 -0.25 -0.26 -0.23 -0.32 -0.57 -0.96 -1.39 -1.72 -1.89 -1.92 -1.90 -13.28 -1.78 -1.51 -0.98 -0.13 0.97 2.12 3.14 3.85 4.20 4.13 3.71 3.00 2.08 1.05 0.00 9.62 -1.68 -2.07 -2.09 -1.78 -1.27 -0.73 -0.30 -0.10 -0.13 -0.35 -0.67 -1.07 -1.43 -1.68 -1.77 -9.17 -1.46 -1.23 -1.06 -1.05 -1.19 -1.48 -1.80 -2.08 -2.14 -1.84 -1.10 0.01 1.32 2.48 3.25 -15.02 3.29 2.76 2.05 1.25 0.37 -0.60 -1.59 -2.44 -3.03 -3.27 -3.16 -2.90 -2.61 -2.40 -2.30 -31.88 -2.30 -2.44 -2.78 -3.46 -4.43 -5.42 -5.97 -5.60 -4.05 -1.56 1.10 3.03 3.55 2.74 1.41 -57.35 1.69 4.76 9.58 15.48 21.70 27.62 32.54 35.55 35.47 31.45 23.47 12.78 1.51 -8.09 -14.60 155.63 -18.88 -18.56 -17.59 -15.97 -13.46 -10.01 -6.22 -3.10 -1.50 -1.66 -3.15 -5.03 -6.44 -6.97 -6.66 14.52 -5.20 -4.82 -4.89 -5.28 -5.78 -6.16 -6.15 -5.63 -4.61 -3.22 -1.80 -0.69 -0.13 -0.22 -0.82 -42.61 -2.72 -3.52 -3.95 -3.85 -3.02 -1.49 0.70 3.21 5.67 7.65 8.82 9.09 8.56 7.43 5.81 -0.38 1.55 -0.95 -3.33 -5.21 -6.08 -5.72 -4.15 -1.78 0.75 2.88 4.13 4.40 3.77 2.49 0.85 -7.69 -2.60 -4.19 -5.64 -6.93 -7.99 -8.67 -8.90 -8.70 -8.22 -7.68 -7.18 -6.66 -5.95 -4.85 -3.35 -106.86 -0.07 1.18 2.18 3.19 4.49 6.14 7.91 9.37 10.28 10.56 10.45 10.15 9.73 9.03 7.83 1.55 3.66 1.17 -1.09 -2.97 -4.52 -5.89 -7.15 -8.07 -8.23 -7.18 -4.77 -1.15 3.05 7.12 10.34 -11.84 12.90 12.32 10.95 9.13 7.13 5.17 3.38 1.88 0.85 0.32 0.27 0.59 1.06 1.51 1.76 59.09 1.33 0.61 -0.35 -1.42 -2.39 -3.11 -3.45 -3.43 -3.24 -3.07 -3.09 -3.38 -3.89 -4.49 -5.00 15.48 -4.99 -4.06 -2.30 0.25 3.36 6.55 9.32 11.16 11.80 11.29 9.82 7.69 5.20 2.58 0.02 80.93 -3.95 -4.95 -5.24 -4.99 -4.51 -4.09 -3.93 -4.04 -4.28 -4.61 -4.89 -5.15 -5.33 -5.31 -4.91 6.61 -3.15 -2.37 -2.30 -3.21 -5.07 -7.38 -9.34 -10.14 -9.17 -6.25 -1.70 3.75 9.12 13.36 15.65 3.85 12.75 8.00 2.06 -4.06 -9.40 -13.36 -15.87 -17.26 -18.17 -19.12 -20.13 -20.55 -19.23 -15.01 -7.46 -150.35 13.39 22.63 28.66 30.86 29.65 26.06 20.95 14.79 7.87 0.71 -5.66 -9.86 -10.87 -8.51 -3.66 8.74 7.13 10.48 11.79 11.42 9.90 7.73 5.31 2.88 0.51 -1.77 -4.00 -6.04 -7.71 -8.68 -8.67 31.45 -5.68 -3.39 -1.28 0.30 1.18 1.47 1.34 1.00 0.53 0.00 -0.62 -1.27 -1.91 -2.54 -3.16 13.62 -4.49 -5.10 -5.38 -5.04 -3.82 -1.66 1.19 4.25 6.92 8.69 9.31 8.86 7.60 5.93 4.09 47.25 0.52 -1.07 -2.42 -3.34 -3.69 -3.46 -2.71 -1.69 -0.70 0.01 0.27 0.07 -0.47 -1.15 -1.78 23.42 -2.44 -2.55 -2.69 -2.99 -3.48 -4.16 -4.84 -5.35 -5.44 -4.88 -3.53 -1.42 1.22 3.98 6.39 -0.79 8.53 8.09 6.88 5.22 3.40 1.60 0.00 -1.33 -2.29 -2.78 -2.78 -2.35 -1.60 -0.74 0.04 19.57 0.48 0.04 -0.67 -1.41 -1.95 -2.17 -2.13 -2.02 -2.01 -2.23 -2.66 -3.20 -3.76 -4.23 -4.51 -17.31 -3.89 -2.71 -0.86 1.46 3.96 6.13 7.62 8.18 7.77 6.61 4.95 3.06 1.21 -0.39 -1.62 21.81 -2.59 -2.37 -1.81 -1.13 -0.49 -0.03 0.19 0.19 0.03 -0.26 -0.62 -1.04 -1.45 -1.84 -2.17 4.00 -2.57 -2.63 -2.63 -2.60 -2.62 -2.74 -3.00 -3.24 -3.33 -2.97 -1.98 -0.33 1.82 4.07 5.94 -7.74 7.24 6.53 5.22 3.62 1.96 0.38 -1.04 -2.22 -2.97 -3.12 -2.64 -1.65 -0.50 0.47 1.03 5.68 0.90 0.55 0.21 -0.10 -0.41 -0.71 -1.04 -1.35 -1.62 -1.89 -2.06 -2.12 -2.01 -1.77 -1.54 -10.82 -1.93 -2.61 -3.33 -3.64 -3.12 -1.65 0.56 3.04 5.19 6.60 7.09 6.76 5.82 4.55 3.07 17.08 -0.07 -1.47 -2.56 -3.19 -3.33 -3.09 -2.62 -2.06 -1.52 -1.04 -0.67 -0.45 -0.41 -0.56 -0.87 -8.10 -1.73 -2.20 -2.57 -2.78 -2.67 -2.22 -1.53 -0.78 -0.29 -0.27 -0.80 -1.67 -2.55 -2.96 -2.50 -36.64 1.33 4.14 6.77 8.65 9.39 8.91 7.50 5.51 3.40 1.47 -0.13 -1.33 -2.12 -2.41 -2.23 10.62 -0.70 0.16 0.74 0.89 0.71 0.36 0.05 -0.07 0.00 0.10 0.09 -0.12 -0.49 -0.96 -1.38 8.31 -1.87 -2.01 -2.17 -2.42 -2.80 -3.22 -3.45 -3.24 -2.42 -0.91 1.07 3.15 4.90 6.02 6.40 11.42 5.26 4.12 2.84 1.48 0.18 -1.00 -1.90 -2.41 -2.49 -2.17 -1.58 -0.90 -0.34 -0.04 -0.11 11.85 -1.19 -1.99 -2.77 -3.40 -3.80 -3.92 -3.80 -3.54 -3.23 -2.99 -2.88 -2.91 -3.01 -3.17 -3.33 -37.56 -3.53 -3.33 -2.67 -1.37 0.55 2.85 5.11 6.84 7.66 7.54 6.63 5.32 3.96 2.76 1.78 3.53 0.28 -0.33 -0.79 -1.01 -0.96 -0.69 -0.31 0.03 0.23 0.25 0.14 -0.06 -0.27 -0.41 -0.51 -1.45 -0.69 -0.94 -1.35 -1.85 -2.37 -2.73 -2.93 -2.94 -2.79 -2.43 -1.74 -0.60 0.98 2.81 4.51 -10.85 5.98 5.46 4.34 2.92 1.48 0.16 -1.02 -2.08 -2.97 -3.56 -3.67 -3.25 -2.32 -1.18 -0.12 -10.13 0.71 0.44 -0.02 -0.42 -0.64 -0.66 -0.62 -0.68 -0.91 -1.35 -1.92 -2.53 -3.11 -3.47 -3.43 -31.56 -1.54 0.37 2.65 4.90 6.67 7.70 7.88 7.35 6.34 5.05 3.65 2.22 0.82 -0.39 -1.31 19.02 -1.83 -1.50 -1.05 -0.68 -0.52 -0.57 -0.73 -0.87 -0.88 -0.80 -0.68 -0.62 -0.69 -0.92 -1.27 3.66 -2.38 -3.13 -3.94 -4.56 -4.68 -3.93 -2.22 0.36 3.29 5.99 7.89 8.64 8.26 7.04 5.37 29.27 1.99 0.57 -0.66 -1.70 -2.51 -3.00 -3.11 -2.86 -2.46 -2.09 -1.91 -1.97 -2.13 -2.21 -2.08 1.41 -1.27 -0.91 -0.80 -1.01 -1.50 -2.18 -2.90 -3.46 -3.70 -3.45 -2.61 -1.13 0.92 3.35 5.87 -5.28 9.66 10.25 9.82 8.42 6.30 3.73 0.98 -1.74 -4.24 -6.36 -7.94 -8.91 -9.22 -8.94 -8.23 -18.98 -6.23 -5.16 -4.07 -2.92 -1.62 -0.22 1.19 2.38 3.12 3.26 2.81 1.93 0.87 -0.17 -1.01 -26.38 -1.66 -1.21 -0.13 1.55 3.55 5.47 6.89 7.50 7.30 6.47 5.32 4.14 3.01 1.96 0.93 24.64 -0.96 -1.61 -1.88 -1.77 -1.31 -0.63 0.08 0.67 0.93 0.80 0.29 -0.53 -1.44 -2.24 -2.80 9.17 -3.11 -3.01 -2.90 -2.86 -2.98 -3.28 -3.71 -4.07 -4.02 -3.29 -1.71 0.56 3.13 5.44 7.00 -2.03 7.26 6.23 4.76 3.13 1.48 -0.04 -1.28 -2.12 -2.43 -2.26 -1.73 -1.06 -0.43 0.01 0.25 10.04 0.21 0.01 -0.30 -0.71 -1.22 -1.72 -2.16 -2.44 -2.56 -2.53 -2.47 -2.44 -2.53 -2.73 -3.03 -19.86 -3.36 -3.03 -2.13 -0.55 1.54 3.84 5.84 7.10 7.35 6.69 5.37 3.82 2.31 0.97 -0.14 14.70 -1.69 -1.96 -1.74 -1.10 -0.19 0.69 1.30 1.50 1.29 0.83 0.34 -0.04 -0.26 -0.39 -0.58 11.72 -1.59 -2.32 -2.89 -3.14 -2.95 -2.43 -1.78 -1.29 -1.12 -1.33 -1.86 -2.55 -3.18 -3.47 -3.18 -25.49 -0.34 1.92 4.19 5.95 6.82 6.73 5.88 4.61 3.28 2.04 0.89 -0.18 -1.19 -2.03 -2.51 8.11 -1.86 -0.85 0.21 1.03 1.33 1.12 0.54 -0.12 -0.66 -0.91 -0.93 -0.89 -0.91 -1.09 -1.41 0.99 -1.96 -2.04 -2.02 -1.91 -1.77 -1.61 -1.41 -1.27 -1.27 -1.47 -1.88 -2.31 -2.52 -2.20 -1.17 -25.23 2.75 4.87 6.45 7.14 6.84 5.75 4.19 2.53 1.04 -0.19 -1.13 -1.85 -2.26 -2.34 -2.00 5.26 -0.43 0.39 0.83 0.84 0.46 -0.06 -0.45 -0.54 -0.37 -0.20 -0.20 -0.62 -1.34 -2.15 -2.75 -4.24 -2.58 -1.95 -1.32 -0.92 -0.92 -1.25 -1.74 -2.18 -2.37 -2.22 -1.68 -0.74 0.57 2.13 3.73 -12.56 5.98 6.12 5.52 4.27 2.67 1.00 -0.54 -1.79 -2.65 -3.06 -2.91 -2.27 -1.23 -0.02 1.03 1.26 1.90 1.70 1.25 0.75 0.31 -0.04 -0.36 -0.69 -1.03 -1.38 -1.66 -1.89 -2.05 -2.11 -2.09 -8.09 -1.72 -1.46 -1.25 -1.19 -1.29 -1.45 -1.43 -1.00 -0.04 1.43 3.11 4.63 5.61 5.84 5.30 11.21 2.82 1.41 0.13 -0.96 -1.87 -2.56 -2.91 -2.83 -2.28 -1.33 -0.24 0.71 1.27 1.41 1.20 6.01 0.45 0.15 -0.09 -0.36 -0.66 -1.01 -1.37 -1.65 -1.85 -1.92 -1.94 -2.00 -2.23 -2.66 -3.24 -18.14 -3.95 -3.52 -2.35 -0.55 1.60 3.69 5.37 6.33 6.51 6.03 5.04 3.76 2.37 0.98 -0.25 11.64 -2.00 -2.35 -2.30 -1.91 -1.29 -0.60 0.02 0.48 0.73 0.81 0.74 0.58 0.29 -0.10 -0.55 3.15 -1.47 -1.79 -1.94 -1.93 -1.81 -1.67 -1.57 -1.59 -1.79 -2.09 -2.45 -2.63 -2.36 -1.45 0.15 -21.06 4.20 5.71 6.35 6.05 4.99 3.56 2.11 0.82 -0.22 -1.06 -1.68 -2.06 -2.18 -1.99 -1.59 0.89 -0.57 -0.19 0.05 0.19 0.26 0.30 0.23 0.06 -0.29 -0.76 -1.23 -1.57 -1.72 -1.66 -1.53 -9.06 -1.73 -2.21 -2.82 -3.24 -3.20 -2.45 -0.98 0.98 3.06 4.78 5.86 6.17 5.76 4.85 3.67 11.82 1.08 -0.16 -1.28 -2.19 -2.83 -3.08 -2.89 -2.25 -1.26 -0.13 0.86 1.43 1.47 1.01 0.29 1.45 -0.95 -1.18 -1.23 -1.27 -1.47 -1.83 -2.35 -2.92 -3.39 -3.62 -3.53 -2.97 -1.87 -0.28 1.68 -22.03 5.44 6.53 6.80 6.27 5.12 3.67 2.20 0.83 -0.40 -1.48 -2.38 -2.96 -3.09 -2.71 -1.88 -0.96 0.00 0.52 0.60 0.36 -0.03 -0.37 -0.60 -0.68 -0.73 -0.82 -1.02 -1.41 -2.00 -2.68 -3.37 -17.02 -3.88 -3.30 -2.03 -0.13 2.18 4.47 6.34 7.38 7.42 6.54 5.03 3.27 1.60 0.18 -0.94 15.32 -2.38 -2.63 -2.47 -1.89 -1.01 -0.08 0.63 0.96 0.86 0.43 -0.11 -0.56 -0.87 -1.03 -1.17 2.59 -1.82 -2.34 -2.86 -3.25 -3.41 -3.33 -2.93 -2.18 -0.95 0.79 2.86 4.97 6.66 7.50 7.32 15.88 4.64 2.93 1.35 0.01 -1.12 -2.08 -2.76 -3.00 -2.74 -2.01 -1.08 -0.25 0.20 0.26 0.01 9.93 -0.54 -0.67 -0.73 -0.80 -0.96 -1.19 -1.50 -1.82 -2.20 -2.60 -3.03 -3.33 -3.34 -2.82 -1.62 -17.02 2.33 4.30 5.63 6.08 5.67 4.67 3.44 2.21 1.06 -0.07 -1.19 -2.22 -2.95 -3.17 -2.78 4.12 -0.73 0.33 1.03 1.27 1.10 0.68 0.19 -0.24 -0.56 -0.76 -0.90 -1.01 -1.15 -1.39 -1.77 -2.13 -2.94 -3.42 -3.50 -2.95 -1.71 0.12 2.19 4.11 5.44 5.95 5.59 4.56 3.12 1.64 0.30 15.57 -1.66 -2.34 -2.75 -2.83 -2.45 -1.67 -0.69 0.19 0.64 0.55 0.01 -0.72 -1.28 -1.51 -1.36 -3.32 -0.69 -0.60 -0.81 -1.34 -2.07 -2.83 -3.35 -3.43 -2.84 -1.55 0.32 2.43 4.35 5.72 6.30 2.42 5.41 4.35 3.15 1.89 0.57 -0.76 -1.95 -2.78 -3.09 -2.80 -2.06 -1.13 -0.28 0.27 0.53 4.30 0.49 0.41 0.25 -0.01 -0.47 -1.11 -1.84 -2.55 -3.10 -3.46 -3.56 -3.35 -2.75 -1.68 -0.12 -16.82 3.58 5.02 5.77 5.69 4.93 3.76 2.48 1.32 0.37 -0.43 -1.11 -1.66 -1.98 -1.95 -1.54 6.62 0.02 0.72 1.07 0.98 0.49 -0.20 -0.88 -1.41 -1.68 -1.80 -1.86 -1.98 -2.24 -2.64 -3.07 -11.27 -3.50 -3.20 -2.44 -1.17 0.44 2.25 3.97 5.31 6.03 5.97 5.17 3.77 2.05 0.33 -1.16 10.33 -2.77 -2.77 -2.21 -1.17 0.17 1.55 2.61 3.09 2.78 1.80 0.39 -1.05 -2.18 -2.74 -2.77 2.66 -1.90 -1.50 -1.29 -1.24 -1.27 -1.31 -1.34 -1.40 -1.47 -1.45 -1.19 -0.49 0.66 2.10 3.45 -2.61 4.62 4.17 3.25 2.07 0.92 -0.08 -0.91 -1.50 -1.84 -1.87 -1.56 -0.97 -0.23 0.47 0.91 5.88 0.84 0.38 -0.16 -0.67 -1.09 -1.36 -1.53 -1.58 -1.59 -1.54 -1.54 -1.62 -1.84 -2.17 -2.46 -14.51 -1.97 -0.83 0.81 2.69 