1500966272.00
64.00
0.00
0.00
0.00
0.00
0.00
0.00
0.00
0.00
0.00
0.00
0.00
0.01
0.01
0.00
-0.03
-0.05
-0.05
0.00
0.13
0.36
0.66
1.01
1.37
1.72
2.06
2.40
2.79
3.24
3.80
4.42
5.06
5.66
6.20
6.68
7.15
7.68
8.31
9.14
10.09
11.04
11.88
12.56
13.14
13.76
14.65
15.96
17.91
20.32
22.90
25.38
27.58
29.57
31.68
34.32
37.81
42.54
48.15
54.10
59.83
64.97
69.58
74.14
79.34
85.71
93.76
103.00
112.62
121.73
129.77
136.75
143.30
150.75
157.77
166.64
177.95
191.79
206.97
220.57
228.25
225.36
208.53
176.87
132.76
80.05
23.07
-34.94
-92.44
-149.16
-205.23
-260.37
-313.74
-363.87
-409.83
-450.91
-486.50
-515.74
-537.23
-549.22
-549.96
-538.37
-514.21
-478.67
-433.88
-382.45
-327.02
-269.84
-212.63
-156.66
-102.95
-52.37
-5.90
35.58
71.43
101.35
125.50
144.38
158.69
169.15
176.37
180.75
182.57
182.07
179.51
175.23
169.65
163.18
156.15
148.81
141.30
133.69
126.02
118.33
110.69
103.16
95.80
88.68
81.83
75.25
68.95
62.95
57.25
51.86
46.78
42.03
37.59
33.45
29.61
26.07
22.81
19.83
17.11
14.67
12.48
10.54
8.83
7.35
6.07
4.97
4.05
3.27
2.62
2.09
1.65
1.30
1.01
0.79
0.61
0.47
0.37
0.30
0.26
0.24
0.22
0.20
0.15
0.08
0.01
-0.05
-0.08
-0.07
-0.03
0.03
0.06
0.05
0.01
-0.05
-0.09
-0.09
-0.03
0.06
0.15
0.19
0.15
0.03
-0.12
-0.23
-0.23
-0.09
0.15
0.39
0.48
0.36
0.03
-0.38
-0.71
-0.76
-0.47
0.06
0.59
0.85
0.66
0.03
-0.79
-1.45
-1.61
-1.15
-0.24
0.71
1.23
1.00
0.07
-1.20
-2.23
-2.57
-2.04
-0.83
0.60
1.70
2.02
1.23
-0.95
-4.55
-9.10
-13.36
-15.60
-14.18
-8.44
0.67
10.87
19.36
24.05
24.40
21.44
17.00
12.63
9.04
6.09
3.33
0.58
-1.84
-3.43
-3.91
-3.54
-2.93
-2.69
-3.17
-4.21
-5.34
-6.06
-6.09
-5.51
-4.62
-3.82
-3.38
-3.40
-3.68
-3.98
-4.05
-3.74
-3.06
-2.16
-1.36
-0.96
-1.19
-2.00
-3.09
-3.90
-3.87
-2.57
0.10
3.83
8.03
12.01
15.15
17.04
17.55
16.82
15.18
13.01
10.66
8.43
6.54
5.13
4.27
3.95
4.15
4.74
5.56
6.41
7.12
7.60
7.96
8.31
8.77
9.35
9.98
10.43
10.44
9.83
8.54
6.76
4.85
3.13
1.73
0.49
-0.98
-3.06
-5.81
-8.98
-12.03
-14.46
-16.00
-16.77
-17.11
-17.40
-17.81
-18.35
-18.97
-19.71
-20.75
-22.22
-23.97
-25.49
-25.97
-24.65
-21.20
-15.84
-9.26
-2.42
3.89
9.21
13.42
16.59
18.77
19.94
20.03
19.06
17.21
14.82
12.32
10.08
8.42
7.49
7.30
7.67
8.32
8.89
9.13
8.96
8.53
8.12
7.92
7.97
8.00
7.63
6.51
4.56
2.03
-0.60
-2.89
-4.61
-5.86
-6.98
-8.28
-9.94
-11.87
-13.92
-15.91
-17.86
-19.86
-21.99
-24.08
-25.70
-26.20
-25.00
-21.82
-16.86
-10.66
-4.00
2.43
8.08
12.65
15.97
17.97
18.61
17.97
16.22
13.66
10.71
7.83
5.43
3.84
3.17
3.34
4.05
4.93
5.67
6.14
6.40
6.61
6.83
6.99
6.85
6.18
4.89
3.11
1.09
-0.92
-2.79
-4.55
-6.28
-8.10
-9.99
-11.90
-13.78
-15.70
-17.83
-20.35
-23.31
-26.48
-29.42
-31.46
-32.00
-30.62
-27.23
-22.07
-15.66
-8.71
-1.94
4.07
8.91
12.45
14.74
15.96
16.34
16.13
15.59
14.95
14.38
13.91
13.41
12.71
11.66
10.33
8.99
7.99
7.58
7.75
8.21
8.53
8.34
7.48
6.06
4.28
2.32
0.20
-2.15
-4.78
-7.60
-10.34
-12.75
-14.64
-16.11
-17.49
-19.22
-21.62
-24.74
-28.26
-31.58
-33.97
-34.77
-33.52
-30.05
-24.54
-17.47
-9.56
-1.63
5.60
11.56
15.95
18.70
19.96
20.02
19.23
17.92
16.37
14.77
13.22
11.77
10.49
9.45
8.73
8.41
8.48
8.88
9.49
10.15
10.67
10.89
10.66
9.84
8.40
6.35
3.83
1.06
-1.79
-4.53
-7.09
-9.50
-11.80
-14.05
-16.37
-18.88
-21.74
-25.04
-28.67
-32.28
-35.21
-36.65
-35.93
-32.70
-27.14
-19.84
-11.64
-3.37
4.34
11.09
16.62
20.75
23.33
24.25
23.59
21.68
19.01
16.18
13.68
11.79
10.51
9.67
9.03
8.39
7.67
6.92
6.23
5.71
5.39
5.19
4.92
4.33
3.19
1.39
-1.07
-3.97
-7.03
-9.96
-12.61
-14.99
-17.30
-19.79
-22.68
-25.95
-29.32
-32.25
-34.00
-33.84
-31.29
-26.21
-18.99
-10.43
-1.61
6.47
13.07
17.93
21.14
22.94
23.52
22.95
21.28
18.67
15.55
12.46
9.92
8.19
7.22
6.74
6.54
6.49
6.63
6.96
7.33
7.48
7.08
5.93
4.05
1.62
-1.11
-3.90
-6.68
-9.44
-12.30
-15.42
-18.96
-23.01
-27.40
-31.63
-34.88
-36.19
-34.80
-30.44
-23.48
-14.83
-5.61
3.17
10.84
17.09
21.86
25.19
27.11
27.65
26.88
24.98
22.27
19.17
16.07
13.36
11.28
9.97
9.41
9.49
9.96
10.53
10.88
10.75
9.92
8.28
5.85
2.79
-0.64
-4.19
-7.66
-11.02
-14.39
-18.00
-22.10
-26.80
-31.91
-36.92
-41.01
-43.23
-42.78
-39.26
-32.84
-24.19
-14.30
-4.18
5.37
13.85
20.97
26.57
30.55
32.81
33.34
32.27
29.91
26.61
22.89
19.17
15.85
13.18
11.24
10.01
9.31
8.93
8.61
8.05
6.99
5.22
2.65
-0.63
-4.41
-8.37
-12.26
-15.94
-19.49
-23.21
-27.50
-32.82
-39.37
-46.93
-54.82
-61.91
-66.93
-68.84
-67.22
-62.37
-55.25
-47.15
-39.28
-32.54
-27.35
-23.75
-21.58
-20.57
-20.40
-20.64
-20.66
-19.71
-17.05
-12.17
-4.99
4.08
14.33
25.04
35.62
45.72
55.15
63.61
70.78
76.18
79.43
80.30
78.82
75.30
70.25
64.28
57.95
51.67
45.62
39.78
33.91
27.71
20.99
13.69
6.01
-1.54
-8.18
-12.98
-15.07
-13.92
-9.63
-2.85
5.29
13.58
21.08
27.27
32.04
35.48
37.68
38.64
38.33
36.75
34.17
31.00
27.75
24.87
22.55
20.81
19.44
18.24
17.07
15.90
14.81
13.91
13.24
12.70
12.11
11.25
9.97
8.18
5.97
3.49
0.93
-1.53
-3.81
-5.89
-7.84
-9.82
-12.09
-14.90
-18.42
-22.60
-27.08
-31.20
-34.09
-34.91
-33.06
-28.40
-21.33
-12.70
-3.59
4.96
12.16
17.63
21.31
23.42
24.26
24.11
23.20
21.73
19.97
18.24
16.86
16.01
15.69
15.71
15.82
15.88
15.84
15.77
15.76
15.74
15.58
15.10
14.14
12.68
10.77
8.50
5.97
3.27
0.47
-2.30
-4.97
-7.49
-9.93
-12.41
-15.09
-18.12
-21.59
-25.46
-29.52
-33.36
-36.34
-37.71
-36.81
-33.32
-27.37
-19.59
-10.91
-2.27
5.54
12.08
17.13
20.69
22.83
23.68
23.44
22.41
20.90
19.20
17.53
16.02
14.72
13.69
13.00
12.72
12.88
13.40
14.15
14.94
15.52
15.70
15.31
14.29
12.66
10.60
8.33
6.09
4.04
2.18
0.40
-1.54
-3.81
-6.49
-9.48
-12.59
-15.57
-18.28
-20.72
-23.11
-25.71
-28.78
-32.30
-35.90
-38.85
-40.28
-39.41
-35.89
-29.83
-21.87
-12.92
-3.95
4.18
10.89
15.83
18.95
20.41
20.53
19.74
18.48
17.08
15.78
14.62
13.61
12.73
12.00
11.53
11.40
11.65
12.25
13.05
13.83
14.33
14.34
13.74
12.54
10.89
8.99
6.99
4.96
2.88
0.67
-1.73
-4.24
-6.72
-8.99
-10.95
-12.67
-14.33
-16.15
-18.31
-20.90
-23.93
-27.26
-30.60
-33.45
-35.12
-34.92
-32.33
-27.24
-20.07
-11.65
-3.01
4.91
11.48
16.39
19.63
21.30
21.56
20.62
18.78
16.41
13.94
11.74
10.03
8.82
8.02
7.48
7.13
6.99
7.08
7.35
7.65
7.77
7.59
7.08
6.31
5.33
4.08
2.42
0.22
-2.47
-5.35
-8.06
-10.30
-12.10
-13.70
-15.53
-17.94
-21.02
-24.56
-28.10
-31.02
-32.68
-32.55
-30.28
-25.89
-19.75
-12.51
-5.00
2.01
7.91
12.42
15.48
17.22
17.89
17.76
17.09
16.11
14.98
13.78
12.53
11.21
9.79
8.35
6.96
5.77
4.90
4.40
4.27
4.40
4.60
4.65
4.35
3.57
2.26
0.48
-1.60
-3.78
-5.90
-7.85
-9.69
-11.56
-13.72
-16.37
-19.61
-23.29
-26.95
-29.86
-31.19
-30.25
-26.77
-21.03
-13.79
-6.07
1.16
7.26
12.02
15.53
18.00
19.49
19.93
19.16
17.14
14.17
10.81
7.76
5.55
4.39
4.10
4.30
4.62
4.90
5.17
5.55
6.04
6.51
6.70
6.37
5.42
3.96
2.19
0.32
-1.52
-3.30
-5.04
-6.78
-8.55
-10.35
-12.18
-14.13
-16.35
-19.05
-22.34
-26.13
-29.95
-33.03
-34.48
-33.62
-30.26
-24.74
-17.80
-10.28
-2.89
3.88
9.70
14.35
17.60
19.36
19.71
18.91
17.39
15.50
13.56
11.74
10.21
9.07
8.38
8.11
8.08
8.04
7.77
7.19
6.38
5.47
4.56
3.62
2.50
1.13
-0.45
-2.09
-3.59
-4.89
-6.11
-7.51
-9.32
-11.61
-14.26
-17.05
-19.83
-22.59
-25.34
-27.97
-30.10
-31.05
-30.12
-26.86
-21.33
-14.10
-6.08
1.78
8.76
14.46
18.75
21.63
23.10
23.19
21.92
19.49
16.36
13.13
10.43
8.66
7.91
7.90
8.22
8.47
8.46
8.24
7.90
7.50
6.95
6.05
4.66
2.81
0.69
-1.42
-3.31
-4.96
-6.50
-8.12
-9.97
-12.07
-14.35
-16.74
-19.28
-22.17
-25.61
-29.63
-33.87
-37.56
-39.63
-39.17
-35.72
-29.49
-21.32
-12.32
-3.58
4.16
10.49
15.32
18.66
20.56
21.09
20.41
18.83
16.73
14.56
12.70
11.35
10.50
10.05
9.83
9.76
9.93
10.40
11.20
12.18
13.02
13.40
13.13
12.19
10.70
8.87
6.80
4.53
2.03
-0.67
-3.51
-6.38
-9.19
-11.93
-14.68
-17.62
-20.86
-24.48
-28.44
-32.54
-36.32
-39.12
-40.17
-38.83
-34.73
-28.07
-19.53
-10.13
-0.93
7.24
13.90
18.93
22.47
24.73
25.85
25.94
25.06
23.35
21.03
18.39
15.75
13.38
11.49
10.20
9.56
9.53
9.99
10.73
11.52
12.12
12.31
11.98
11.02
9.42
7.22
4.55
1.61
-1.39
-4.23
-6.84
-9.22
-11.46
-13.59
-15.64
-17.56
-19.38
-21.23
-23.35
-25.92
-28.93
-32.06
-34.70
-36.10
-35.59
-32.75
-27.57
-20.41
-11.94
-3.01
5.52
12.94
18.74
22.76
25.07
25.93
25.64
24.48
22.72
20.62
18.44
16.49
15.00
14.08
13.69
13.62
13.63
13.52
13.23
12.81
12.33
11.79
11.09
10.09
8.66
6.79
4.51
1.95
-0.82
-3.81
-7.00
-10.36
-13.69
-16.80
-19.53
-21.92
-24.22
-26.78
-29.78
-33.06
-36.03
-37.81
-37.52
-34.59
-28.97
-21.12
-11.92
-2.37
6.61
14.32
20.30
24.31
26.32
26.49
25.15
22.77
19.84
16.75
13.73
10.97
8.55
6.60
5.20
4.41
4.15
4.24
4.50
4.75
4.87
4.82
4.54
4.00
3.19
2.13
0.87
-0.54
-2.09
-3.81
-5.77
-8.05
-10.72
-13.83
-17.43
-21.44
-25.58
-29.26
-31.62
-31.81
-29.24
-23.85
-16.19
-7.24
1.89
10.20
17.05
22.16
25.47
27.02
26.91
25.28
22.44
18.84
15.06
11.71
9.23
7.85
7.42
7.63
8.02
8.24
8.10
7.63
6.97
6.27
5.58
4.83
3.80
2.31
0.26
-2.29
-5.17
-8.18
-11.22
-14.27
-17.45
-20.91
-24.74
-28.96
-33.38
-37.60
-41.02
-42.91
-42.61
-39.69
-34.13
-26.34
-17.08
-7.26
2.23
10.70
17.65
22.80
26.02
27.36
27.06
25.45
23.00
20.20
17.49
15.28
13.87
13.36
13.66
14.49
15.44
16.14
16.39
16.22
15.80
15.25
14.63
13.79
12.56
10.74
8.27
5.20
1.64
-2.26
-6.39
-10.65
-14.95
-19.25
-23.59
-28.03
-32.57
-37.00
-40.81
-43.19
-43.30
-40.54
-34.80
-26.51
-16.55
-5.99
4.16
13.13
20.48
26.05
29.82
31.90
32.41
31.58
29.73
27.29
24.76
22.54
20.83
19.64
18.83
18.27
17.93
17.84
18.02
18.36
18.65
18.59
17.94
16.66
14.77
12.37
9.55
6.41
3.07
-0.28
-3.41
-6.22
-8.69
-10.92
-13.06
-15.22
-17.46
-19.84
-22.51
-25.62
-29.25
-33.21
-36.97
-39.67
-40.41
-38.47
-33.60
-26.16
-17.01
-7.26
2.04
10.10
16.54
21.28
24.40
26.04
26.32
25.38
23.46
20.92
18.26
15.95
14.36
13.64
13.74
14.44
15.48
16.64
17.73
18.58
19.05
18.99
18.32
17.03
15.19
12.92
10.30
7.38
4.19
0.83
-2.57
-5.79
-8.67
-11.15
-13.37
-15.62
-18.27
-21.55
-25.48
-29.74
-33.76
-36.78
-38.06
-37.02
-33.42
-27.39
-19.43
-10.34
-1.13
7.28
14.19
19.22
22.38
23.87
24.02
23.09
21.33
18.97
16.36
13.94
12.10
11.13
11.04
11.57
12.38
13.16
13.75
14.17
14.49
14.74
14.80
14.41
13.31
11.29
8.40
4.91
1.21
-2.29
-5.29
-7.68
-9.54
-11.10
-12.72
-14.83
-17.79
-21.77
-26.58
-31.60
-35.85
-38.19
-37.71
-33.95
-27.12
-18.03
-7.88
2.09
10.81
17.64
22.35
25.02
25.94
25.47
23.98
21.87
19.55
17.38
15.62
14.36
13.54
12.97
12.48
12.02
11.62
11.44
11.63
12.18
12.93
13.61
13.86
13.43
12.18
10.14
7.45
4.29
0.86
-2.61
-5.90
-8.80
-11.21
-13.19
-15.00
-17.01
-19.63
-23.12
-27.46
-32.31
-36.94
-40.41
-41.76
-40.28
-35.71
-28.43
-19.28
-9.40
0.05
8.24
14.73
19.48
22.67
24.62
25.58
25.70
25.05
23.68
21.69
19.33
16.96
14.96
13.62
13.02
13.06
13.49
14.05
14.50
14.71
14.65
14.36
13.90
13.34
12.66
11.72
10.21
7.85
4.49
0.30
-4.30
-8.71
-12.47
-15.40
-17.71
-19.85
-22.27
-25.25
-28.84
-32.84
-36.92
-40.58
-43.29
-44.39
-43.27
-39.50
-33.03
-24.38
-14.53
-4.74
3.80
10.30
14.57
16.99
18.24
19.03
19.84
20.84
21.95
22.94
23.66
24.07
24.29
24.51
24.97
25.87
27.34
29.38
31.82
34.44
36.97
39.17
40.91
42.27
43.43
44.65
46.16
48.00
50.07
52.23
54.38
56.60
59.13
62.25
66.12
70.49
74.48
76.50
74.44
66.16
50.29
26.98
-1.74
-32.20
-60.01
-81.19
-93.16
-95.19
-88.20
-74.27
-56.12
-36.62
-18.46
-3.74
6.37
11.76
13.25
12.07
9.42
6.16
2.82
-0.23
-2.73
-4.56
-5.98
-7.63
-10.34
-14.54
-19.96
-25.63
-30.31
-33.14
-34.11
-34.06
-34.25
-35.79
-39.22
-44.35
-50.54
-57.03
-63.21
-68.69
-73.30
-76.93
-79.60
-81.43
-82.65
-83.56
-84.35
-84.98
-85.18
-84.47
-82.37
-78.55
-72.92
-65.67
-57.23
-48.21
-39.31
-31.23
-24.52
-19.45
-15.97
-13.75
-12.22
-10.71
-8.47
-4.74
1.32
10.52
23.53
40.58
61.22
84.14
107.34
128.48
145.52
157.04
162.42
161.74
155.57
144.82
130.72
114.80
98.75
84.08
71.72
61.70
53.25
45.17
36.32
26.17
14.95
3.53
-6.79
-14.75
-19.44
-20.51
-18.30
-13.70
-7.88
-1.98
3.09
6.77
8.78
9.04
7.60
4.70
0.69
-3.90
-8.56
-12.87
-16.61
-19.80
-22.56
-25.01
-27.20
-29.07
-30.48
-31.28
-31.37
-30.77
-29.54
-27.83
-25.81
-23.62
-21.40
-19.25
-17.33
-15.86
-15.06
-15.22
-16.50
-18.91
-22.17
-25.75
-28.89
-30.75
-30.63
-28.07
-23.04
-15.97
-7.65
0.95
8.93
15.66
20.84
24.49
26.78
27.92
28.05
27.23
25.53
23.06
20.05
16.88
13.87
11.26
9.15
7.47
6.06
4.79
3.58
2.40
1.22
-0.05
-1.59
-3.57
-6.15
-9.25
-12.80
-16.72
-21.08
-26.03
-31.66
-37.72
-43.52
-48.04
-50.25
-49.50
-45.75
-39.57
-31.84
-23.44
-15.04
-7.05
0.20
6.33
10.80
13.09
12.91
10.34
5.95
0.61
-4.71
-9.25
-12.50
-14.37
-14.99
-14.77
-14.22
-13.91
-14.32
-15.76
-18.30
-21.64
-25.29
-28.66
-31.32
-33.14
-34.35
-35.47
-37.06
-39.49
-42.75
-46.33
-49.39
-51.00
-50.44
-47.36
-41.86
-34.37
-25.53
-16.02
-6.56
2.19
9.61
15.24
18.84
20.53
20.67
19.78
18.31
16.45
14.16
11.29
7.88
4.29
1.16
-0.83
-1.30
-0.36
1.45
3.40
4.90
5.67
5.70
5.07
3.82
1.92
-0.65
-3.75
-7.02
-9.86
-11.56
-11.51
-9.28
-4.76
1.79
9.84
18.66
27.52
35.75
42.90
48.67
52.86
55.29
55.78
54.23
50.73
45.69
39.74
33.62
28.05
23.52
20.21
18.08
16.89
16.34
16.17
16.22
16.47
17.02
17.98
19.34
20.87
22.12
22.51
21.59
19.20
15.62
11.47
7.65
5.06
4.42
6.17
10.34
16.60
24.30
32.63
40.80
48.22
54.58
59.80
63.90
66.88
68.61
68.88
67.52
64.54
60.20
55.00
49.48
44.10
39.09
34.41
29.86
25.26
20.62
16.12
12.05
8.68
6.08
4.06
2.22
0.07
-2.81
-6.67
-11.50
-17.05
-22.86
-28.33
-32.74
-35.40
-35.67
-33.16
-27.83
-20.08
-10.71
-0.77
8.64
16.66
22.69
26.47
27.91
27.00
23.85
18.75
12.24
5.11
-1.84
-7.97
-12.99
-16.90
-19.93
-22.26
-24.01
-25.27
-26.23
-27.25
-28.88
-31.56
-35.40
-40.12
-45.07
-49.47
-52.66
-54.28
-54.18
-52.34
-48.72
-43.32
-36.22
-27.83
-18.84
-10.13
-2.48
3.59
7.94
10.70
12.13
12.53
12.18
11.41
10.67
10.45
11.09
12.67
14.76
16.52
16.93
15.15
10.87
4.51
-2.87
-9.97
-15.65
-19.36
-21.29
-22.25
-23.33
-25.51
-29.32
-34.64
-40.84
-46.88
-51.60
-53.98
-53.23
-48.97
-41.21
-30.47
-17.71
-4.25
8.46
19.14
26.92
31.54
33.28
32.86
31.22
29.33
28.04
27.98
29.42
32.20
35.65
38.74
40.22
39.01
34.45
26.56
16.03
4.02
-8.09
-19.04
-27.89
-34.03
-37.25
-37.56
-35.30
-31.06
-25.69
-20.19
-15.46
-12.08
-10.20
-9.56
-9.73
-10.32
-11.22
-12.48
-14.24
-16.48
-18.91
-20.97
-22.12
-21.92
-20.29
-17.52
-14.14
-10.74
-7.75
-5.36
-3.57
-2.25
-1.42
-1.29
-2.22
-4.65
-8.82
-14.63
-21.54
-28.67
-34.96
-39.36
-41.11
-39.86
-35.74
-29.34
-21.53
-13.38
-5.85
0.17
4.12
5.70
4.97
2.31
-1.65
-6.13
-10.37
-13.77
-15.99
-16.96
-16.79
-15.69
-13.86
-11.50
-8.73
-5.74
-2.70
0.04
2.03
2.72
1.58
-1.59
-6.47
-12.07
-16.95
-19.53
-18.67
-14.04
-6.22
3.50
13.59
22.66
29.77
34.49
36.68
36.45
34.03
29.79
24.35
18.50
13.05
8.59
5.35
3.22
1.86
0.84
-0.16
-1.37
-2.88
-4.62
-6.39
-7.92
-8.97
-9.53
-9.84
-10.32
-11.34
-12.90
-14.48
-15.20
-14.16
-10.79
-5.16
2.08
9.91
17.33
23.53
28.05
30.67
31.32
30.00
26.89
22.32
16.86
11.15
5.82
1.24
-2.48
-5.40
-7.63
-9.20
-10.02
-10.02
-9.27
-8.09
-6.95
-6.40
-6.90
-8.72
-11.86
-16.02
-20.58
-24.62
-27.08
-27.01
-23.85
-17.73
-9.38
-0.01
9.11
16.93
22.80
26.43
27.75
26.87
24.00
19.62
14.42
9.19
4.67
1.29
-0.86
-1.96
-2.33
-2.25
-1.91
-1.39
-0.77
-0.10
0.46
0.70
0.30
-1.07
-3.62
-7.32
-11.65
-15.73
-18.48
-18.94
-16.61
-11.61
-4.63
3.29
11.04
17.62
22.27
24.53
24.20
21.45
16.72
10.78
4.54
-1.10
-5.49
-8.35
-9.74
-10.05
-9.76
-9.24
-8.68
-8.08
-7.32
-6.28
-5.00
-3.64
-2.52
-1.96
-2.19
-3.14
-4.55
-5.79
-6.15
-4.89
-1.43
4.44
12.49
22.06
32.19
41.74
49.76
55.48
58.45
58.57
56.15
51.84
46.61
41.56
37.73
35.87
36.24
38.66
42.63
47.54
52.87
58.25
63.46
68.36
72.81
76.59
79.42
81.08
81.55
81.15
80.63
81.04
83.50
88.88
97.41
108.50
120.66
131.79
139.62
142.21
138.29
127.39
109.72
86.00
57.28
24.95
-9.27
-43.38
-75.32
-103.37
-126.51
-144.49
-157.79
-167.27
-173.85
-178.24
-180.84
-181.79
-181.18
-179.28
-176.78
-174.78
-174.34
-175.84
-178.42
-179.99
-177.83
-169.65
-154.66
-134.00
-110.48
-87.69
-69.08
-57.06
-52.69
-55.57
-64.11
-76.11
-89.42
-102.73
-115.97
-130.25
-147.14
-167.75
-191.89
-217.68
-241.82
-260.17
-268.70
-264.55
-246.76
-216.72
-177.72
-133.78
-88.05
-41.60
6.66
58.75
115.59
175.50
234.14
285.94
326.48
354.29
371.16
380.92
387.59
393.76
400.27
406.52
411.33
413.28
410.65
401.19
382.34
351.94
309.47
256.78
198.06
138.75
83.94
36.81
-2.17
-34.98
-64.85
-94.89
-126.88
-160.84
-195.34
-228.23
-257.59
-282.33
-302.42
-318.71
-332.44
-344.63
-355.46
-363.75
-366.94
-361.49
-343.87
-311.80
-265.35
-207.42
-143.22
-78.92
-19.93
30.48
71.73
105.43
134.10
159.85
183.41
204.01
219.86
229.03
230.15
222.87
207.85
186.75
161.83
135.60
110.39
87.85
68.68
52.60
38.73
26.01
13.85
2.28
-7.99
-15.82
-19.96
-19.27
-13.03
-1.21
15.11
33.60
50.96
63.60
68.71
65.12
53.61
36.48
16.59
-3.65
-22.80
-40.52
-57.20
-73.56
-90.62
-109.84
-133.08
-162.47
-199.52
-244.08
-293.38
-341.81
-381.93
-406.45
-410.36
-392.59
-356.20
-306.91
-251.03
-193.36
-136.09
-78.88
-19.99
42.11
107.14
172.06
231.10
277.15
303.95
308.41
291.92
260.09
220.72
181.17
146.37
118.21
96.44
80.00
68.01
59.74
54.10
49.28
42.97
33.49
20.73
6.69
-5.08
-10.60
-7.08
6.14
27.25
52.82
78.87
102.27
121.51
136.67
148.86
159.37
168.88
177.19
183.51
186.93
186.95
183.81
178.32
171.59
164.40
156.94
148.68
138.72
126.32
111.30
94.17
75.94
57.70
40.32
24.30
9.71
-3.79
-16.97
-31.05
-47.23
-66.10
-86.84
-106.95
-122.66
-130.16
-126.96
-112.88
-90.09
-62.27
-33.35
-6.41
16.93
36.32
52.10
64.65
73.89
79.15
79.37
73.62
61.49
43.39
20.51
-5.58
-33.34
-61.52
-89.11
-115.19
-138.64
-158.13
-172.24
-179.80
-180.15
-173.45
-160.88
-144.52
-127.12
-111.53
-100.15
-94.49
-95.06
-101.62
-113.51
-129.95
-150.14
-173.09
-197.66
-222.56
-246.70
-269.51
-291.17
-312.54
-334.81
-358.86
-384.63
-410.58
-433.52
-448.98
-452.30
-440.00
-410.97
-366.93
-311.90
-250.91
-188.43
-127.32
-68.59
-11.82
44.05
99.97
156.21
211.89
264.84
311.83
349.23
373.97
384.56
381.49
366.90
343.82
315.21
283.51
250.60
218.08
187.50
160.31
137.58
119.67
106.24
96.52
89.64
84.95
82.04
80.76
80.99
82.40
84.35
85.78
85.39
81.95
74.80
64.15
51.15
37.67
25.65
16.55
10.94
8.50
8.33
9.50
11.38
13.72
16.43
19.23
21.58
22.76
22.21
19.78
15.91
11.36
6.86
2.83
-0.59
-3.34
-5.26
-5.98
-5.06
-2.40
1.55
5.82
9.21
10.68
9.70
6.36
1.14
-5.34
-12.43
-19.48
-25.61
-29.69
-30.62
-27.72
-21.16
-11.92
-1.49
8.79
18.13
26.45
33.98
40.76
46.35
49.91
50.77
48.88
45.11
40.97
37.95
36.94
38.17
41.39
46.31
52.89
61.31
71.67
83.61
96.18
107.92
117.09
122.09
121.85
116.23
106.08
93.22
80.04
69.04
62.42
61.86
68.45
82.53
103.43
129.30
156.88
181.99
200.28
208.28
204.11
187.55
159.72
122.47
77.84
28.01
-24.70
-77.72
-128.46
-174.77
-215.45
-250.51
-280.89
-307.88
-332.53
-355.39
-376.76
-396.93
-416.30
-434.91
-451.92
-465.13
-471.39
-467.61
-451.90
-424.41
-387.22
-343.45
-296.16
-247.44
-198.17
-148.31
-97.27
-44.54
9.71
64.28
116.57
163.07
200.17
225.33
237.95
239.50
232.85
221.29
207.54
193.42
180.05
168.13
158.18
150.39
144.37
139.10
133.25
125.81
116.51
105.90
95.06
84.97
76.06
68.02
60.03
51.14
40.83
29.41
18.14
8.94
3.82
4.19
10.33
21.29
35.11
49.49
62.34
72.20
78.35
80.68
79.44
75.07
68.25
59.75
50.43
41.17
32.81
26.00
21.12
18.26
17.12
17.09
17.46
17.63
17.32
16.60
15.66
14.56
13.15
10.95
7.49
2.48
-3.97
-11.46
-19.27
-26.50
-32.18
-35.23
-34.67
-29.81
-20.58
-7.71
7.33
22.59
36.19
46.71
53.35
55.92
54.71
50.32
43.57
35.50
27.30
20.08
14.63
11.23
9.60
9.09
9.00
8.85
8.49
8.00
7.44
6.79
5.86
4.35
2.04
-1.26
-5.61
-11.02
-17.28
-23.90
-29.91
-34.02
-34.93
-31.69
-24.19
-13.19
-0.09
13.56
26.39
37.44
46.07
51.77
54.17
53.13
48.90
42.31
34.53
26.84
20.35
15.65
12.78
11.38
10.85
10.58
10.15
9.35
8.16
6.63
4.86
2.79
0.22
-3.17
-7.73
-13.60
-20.53
-27.73
-33.91
-37.61
-37.59
-33.22
-24.70
-12.97
0.57
14.34
26.89
37.02
43.91
47.13
46.63
42.84
36.59
28.98
21.28
14.64
9.84
7.16
6.28
6.52
7.05
7.20
6.68
5.63
4.43
3.49
2.96
2.60
1.81
-0.16
-3.97
-9.86
-17.40
-25.54
-32.76
-37.47
-38.42
-35.01
-27.46
-16.68
-3.99
9.16
21.48
31.97
39.96
45.03
46.97
45.78
41.79
35.68
28.41
21.09
14.69
9.83
6.77
5.32
5.10
5.63
6.43
7.16
7.59
7.65
7.28
6.44
4.94
2.54
-1.00
-5.77
-11.58
-17.82
-23.53
-27.58
-28.87
-26.61
-20.59
-11.31
0.12
12.16
23.21
32.01
37.81
40.35
39.74
36.27
30.42
22.89
14.67
6.90
0.71
-3.21
-4.76
-4.39
-2.91
-1.10
0.48
1.56
2.11
2.10
1.43
-0.01
-2.39
-5.79
-10.22
-15.52
-21.36
-27.20
-32.19
-35.25
-35.36
-31.79
-24.49
-14.10
-1.89
10.65
22.11
31.33
37.54
40.32
39.58
35.65
29.28
21.62
14.02
7.69
3.41
1.37
1.24
2.33
3.94
5.47
6.57
7.09
6.99
6.19
4.55
1.88
-1.97
-7.01
-13.09
-19.83
-26.66
-32.75
-37.15
-38.84
-37.05
-31.55
-22.81
-12.00
-0.63
9.81
18.29
24.27
27.63
28.45
26.87
23.19
17.89
11.79
5.81
0.84
-2.60
-4.40
-4.82
-4.33
-3.39
-2.39
-1.56
-1.06
-0.95
-1.25
-2.04
-3.48
-5.82
-9.23
-13.63
-18.45
-22.72
-25.25
-25.04
-21.61
-15.15
-6.48
3.21
12.65
20.73
26.61
29.78
30.10
27.79
23.46
17.93
12.14
6.82
2.47
-0.70
-2.65
-3.50
-3.45
-2.80
-1.92
-1.18
-0.87
-1.10
-1.86
-3.06
-4.72
-7.05
-10.34
-14.79
-20.16
-25.63
-29.92
-31.66
-29.83
-24.22
-15.52
-5.10
5.44
14.70
21.73
26.07
27.60
26.40
22.81
17.41
11.09
4.82
-0.54
-4.39
-6.57
-7.20
-6.55
-4.96
-2.80
-0.46
1.62
3.04
3.52
2.96
1.33
-1.38
-5.24
-10.14
-15.72
-21.17
-25.33
-27.01
-25.40
-20.50
-13.02
-4.23
4.48
12.04
17.78
21.43
22.89
22.17
19.36
14.77
8.99
2.85
-2.79
-7.24
-10.19
-11.69
-12.05
-11.59
-10.55
-9.11
-7.52
-6.06
-5.12
-5.00
-5.94
-8.00
-11.10
-15.08
-19.56
-23.85
-26.95
-27.77
-25.45
-19.81
-11.53
-2.03
7.01
14.14
18.57
20.23
19.54
17.15
13.69
9.72
5.79
2.39
-0.09
-1.48
-1.89
-1.66
-1.26
-1.03
-1.16
-1.72
-2.70
-4.12
-6.08
-8.75
-12.22
-16.47
-21.23
-25.84
-29.41
-30.88
-29.37
-24.56
-16.79
-7.06
3.24
12.78
20.51
25.78
28.35
28.22
25.66
21.11
15.34
9.27
3.89
0.00
-1.96
-2.08
-0.88
0.92
2.57
3.61
3.89
3.52
2.66
1.33
-0.70
-3.82
-8.34
-14.22
-20.89
-27.39
-32.52
-35.21
-34.82
-31.20
-24.75
-16.20
-6.51
3.29
12.17
19.26
23.90
25.80
25.08
22.29
18.33
14.26
11.04
9.32
9.22
10.38
12.12
13.69
14.57
14.59
13.89
12.77
11.46
10.04
8.38
6.30
3.60
0.17
-4.04
-8.91
-14.10
-18.93
-22.49
-23.84
-22.28
-17.73
-10.78
-2.53
5.77
13.05
18.65
22.25
23.81
23.44
21.37
18.01
13.96
9.95
6.60
4.39
3.46
3.71
4.78
6.21
7.47
8.12
7.88
6.69
4.72
2.27
-0.31
-2.78
-5.12
-7.46
-10.09
-13.25
-17.09
-21.38
-25.56
-28.70
-29.84
-28.17
-23.48
-16.17
-7.22
2.11
10.68
17.65
22.53
25.21
25.77
24.38
21.35
17.17
12.51
8.16
4.81
2.87
2.37
2.91
3.95
4.97
5.65
5.90
5.78
5.29
4.39
2.97
1.01
-1.41
-4.13
-6.97
-9.95
-13.17
-16.75
-20.61
-24.26
-26.90
-27.61
-25.65
-20.78
-13.39
-4.38
5.10
13.90
21.10
26.09
28.53
28.37
25.83
21.43
15.87
9.97
4.52
0.13
-2.85
-4.31
-4.37
-3.33
-1.66
0.07
1.35
1.76
1.20
-0.15
-1.88
-3.59
-5.07
-6.37
-7.77
-9.60
-12.12
-15.39
-19.22
-23.28
-27.07
-29.93
-31.19
-30.21
-26.67
-20.66
-12.84
-4.20
4.13
11.23
16.48
19.66
20.78
20.02
17.64
14.04
9.77
5.48
1.79
-0.85
-2.27
-2.56
-2.07
-1.22
-0.46
-0.14
-0.40
-1.20
-2.30
-3.41
-4.43
-5.38
-6.49
-8.00
-10.10
-12.83
-16.09
-19.66
-23.12
-25.85
-27.07
-26.02
-22.29
-15.99
-7.92
0.75
8.75
15.11
19.28
21.23
21.19
19.54
16.68
12.98
8.87
4.74
1.03
-1.82
-3.47
-3.79
-2.94
-1.43
0.03
0.83
0.65
-0.40
-1.94
-3.48
-4.79
-5.98
-7.33
-9.17
-11.63
-14.58
-17.85
-21.20
-24.44
-27.26
-29.16
-29.43
-27.42
-22.81
-15.85
-7.32
1.60
9.73
16.16
20.42
22.47
22.49
20.89
18.08
14.53
10.72
7.16
4.32
2.57
2.08
2.66
3.88
5.17
5.98
5.98
5.05
3.28
0.91
-1.79
-4.56
-7.19
-9.57
-11.77
-14.04
-16.64
-19.73
-23.18
-26.45
-28.70
-29.05
-26.90
-22.16
-15.22
-6.90
1.86
10.13
17.15
22.34
25.33
26.00
24.43
21.02
16.41
11.37
6.64
2.76
0.06
-1.46
-1.96
-1.71
-1.00
-0.11
0.69
1.14
1.07
0.45
-0.62
-1.91
-3.23
-4.50
-5.87
-7.66
-10.20
-13.76
-18.19
-22.98
-27.27
-30.02
-30.38
-27.92
-22.76
-15.59
-7.41
0.68
7.76
13.18
16.65
18.11
17.72
15.86
13.02
9.75
6.58
3.93
2.08
1.20
1.33
2.39
4.08
5.95
7.42
8.03
7.57
6.10
3.99
1.54
-1.05
-3.85
-7.04
-10.83
-15.32
-20.36
-25.57
-30.35
-33.94
-35.55
-34.57
-30.83
-24.60
-16.65
-7.98
0.43
7.79
13.54
17.34
18.96
18.38
15.80
11.77
7.09
2.67
-0.68
-2.56
-2.98
-2.28
-1.04
0.18
0.94
1.03
0.40
-0.80
-2.34
-4.02
-5.79
-7.78
-10.30
-13.67
-17.98
-22.96
-27.93
-31.97
-34.15
-33.81
-30.75
-25.20
-17.73
-9.14
-0.30
7.99
15.01
20.22
23.30
24.15
22.98
20.19
16.33
12.03
7.92
4.49
2.10
0.78
0.39
0.52
0.73
0.64
0.05
-1.05
-2.52
-4.23
-6.09
-8.23
-10.83
-14.11
-18.16
-22.77
-27.41
-31.26
-33.35
-32.78
-29.09
-22.42
-13.51
-3.54
6.24
14.73
21.23
25.35
26.99
26.27
23.51
19.24
14.22
9.27
5.17
2.37
0.97
0.70
1.06
1.57
1.86
1.78
1.35
0.65
-0.26
-1.39
-2.91
-4.98
-7.72
-11.15
-15.09
-19.16
-22.80
-25.31
-26.02
-24.43
-20.39
-14.19
-6.51
1.74
9.59
16.22
21.02
23.66
24.11
22.51
19.29
15.09
10.71
7.01
4.66
3.98
4.80
6.54
8.40
9.70
10.09
9.70
8.91
8.09
7.36
6.43
4.86
2.25
-1.55
-6.34
-11.66
-16.85
-21.14
-23.75
-23.96
-21.36
-16.05
-8.72
-0.49
7.43
14.09
18.99
22.04
23.33
22.94
20.99
17.67
13.46
9.05
5.21
2.51
1.15
0.96
1.53
2.47
3.48
4.45
5.29
5.88
6.06
5.58
4.25
1.93
-1.36
-5.50
-10.15
-14.76
-18.58
-20.73
-20.49
-17.54
-12.14
-5.08
2.46
9.37
14.84
18.47
20.21
20.13
18.39
15.15
10.80
6.02
1.69
-1.29
-2.32
-1.38
1.03
4.08
7.01
9.33
10.92
11.86
12.21
11.80
10.35
7.60
3.57
-1.35
-6.47
-10.94
-14.01
-15.10
-13.93
-10.51
-5.10
1.82
9.66
17.85
25.84
33.16
39.27
43.65
45.83
45.48
42.66
37.79
31.70
25.46
20.25
17.01
16.25
17.81
20.88
24.28
26.93
28.17
28.08
27.27
26.56
26.44
26.78
26.78
25.17
20.82
13.22
2.93
-8.43
-18.58
-25.30
-27.16
-24.09
-17.23
-8.57
-0.22
6.21
9.79
10.27
7.68
2.24
-5.70
-15.50
-26.17
-36.38
-44.72
-50.09
-52.00
-50.69
-47.10
-42.49
-38.14
-34.90
-33.21
-33.05
-34.29
-36.69
-40.12
-44.43
-49.50
-55.25
-61.60
-68.43
-75.44
-82.00
-87.01
-89.11
-87.13
-80.60
-70.13
-57.30
-44.22
-32.77
-24.16
-18.68
-15.96
-15.32
-16.11
-17.74
-19.67
-21.19
-21.48
-19.85
-16.00
-10.20
-3.12
4.51
12.16
19.65
27.17
35.08
43.75
53.58
64.81
77.46
91.09
104.72
116.82
125.62
129.68
128.37
122.23
112.89
102.56
93.34
86.58
82.60
80.84
80.30
80.20
80.32
81.00
82.83
86.11
90.57
95.19
98.58
99.43
97.07
91.94
85.64
80.71
80.03
85.88
99.10
118.62
141.23
162.26
176.54
179.64
169.10
144.97
109.95
68.42
25.30
-15.34
-51.16
-81.66
-107.71
-130.65
-151.75
-171.81
-191.32
-210.57
-229.62
-247.98
-264.37
-276.79
-283.13
-281.95
-273.17
-258.05
-238.72
-217.12
-194.44
-170.93
-146.35
-120.70
-94.66
-69.56
-46.93
-27.90
-12.74
-0.88
8.79
17.50
26.33
36.16
47.61
60.99
76.12
92.15
107.47
120.05
127.96
130.05
126.38
118.27
107.86
97.34
88.30
81.38
76.41
72.91
70.44
68.99
68.87
70.40
73.58
77.90
82.45
86.19
88.27
88.18
85.81
81.37
75.33
68.47
61.91
56.93
54.61
55.36
58.52
62.38
64.79
64.06
59.69
52.61
44.75
38.05
33.73
31.86
31.57
31.66
31.18
29.88
28.26
27.41
28.48
32.19
38.28
45.47
51.82
55.29
54.46
48.69
37.85
21.78
0.08
-27.58
-60.61
-96.91
-132.74
-163.75
-186.35
-198.82
-201.53
-196.28
-185.38
-171.00
-155.19
-140.26
-128.76
-122.92
-123.59
-129.48
-137.27
-142.87
-143.17
-137.33
-127.12
-115.96
-107.44
-103.98
-106.31
-113.63
-124.35
-136.66
-148.78
-159.02
-165.68
-167.18
-162.36
-151.08
-134.48
-115.08
-96.19
-80.94
-71.17
-66.97
-66.71
-67.87
-67.85
-64.47
-56.12
-41.59
-19.75
10.27
48.64
94.17
143.95
193.66
238.58
274.92
300.76
316.27
323.05
323.15
318.25
309.57
298.30
286.21
275.74
269.29
267.89
270.20
272.60
270.41
259.73
238.96
209.12
172.77
132.57
89.94
44.97
-2.61
-52.06
-100.93
-145.36
-181.52
-207.19
-222.66
-230.31
-233.47
-235.13
-237.24
-240.68
-245.66
-251.93
-258.80
-265.04
-269.16
-269.90
-266.98
-261.27
-254.59
-248.93
-245.82
-245.98
-249.35
-255.19
-262.20
-268.40
-271.26
-268.02
-256.21
-234.24
-201.78
-159.79
-110.25
-55.69
1.26
57.98
112.09
161.53
204.77
241.10
270.63
294.02
311.86
324.01
329.43
326.57
314.46
293.72
267.07
238.65
212.49
190.73
172.83
155.68
134.93
106.80
69.69
25.20
-21.84
-64.49
-95.84
-111.44
-110.98
-98.37
-79.79
-60.71
-43.14
-25.06
-2.05
29.35
68.79
111.10
148.08
171.75
177.69
166.47
142.86
113.24
82.83
53.85
25.64
-3.90
-36.28
-71.07
-105.69
-136.37
-159.55
-173.11
-176.85
-172.09
-160.92
-145.46
-127.55
-108.96
-91.80
-78.66
-72.19
-74.32
-85.45
-104.25
-128.11
-154.06
-179.50
-202.38
-220.90
-233.11
-236.98
-231.11
-215.58
-192.26
-164.17
-134.08
-103.18
-70.65
-34.40
7.48
55.10
106.34
157.25
203.29
240.73
267.48
283.14
288.58
285.05
273.79
255.92
232.80
206.14
178.00
150.15
123.30
96.67
68.03
34.39
-6.75
-56.02
-111.10
-166.49
-214.47
-247.01
-258.19
-245.91
-212.27
-162.33
-102.07
-36.54
30.54
95.88
155.22
202.96
233.19
242.14
230.20
202.32
166.26
129.49
96.46
67.41
39.45
8.67
-27.38
-68.27
-110.75
-149.82
-180.42
-198.90
-203.92
-196.46
-179.04
-154.69
-126.07
-95.31
-64.42
-35.65
-11.25
7.37
20.82
32.31
46.76
68.93
101.11
141.86
186.34
228.03
260.98
281.34
287.71
280.60
261.47
232.37
195.99
155.92
116.52
82.36
57.12
42.75
39.12
44.36
55.47
68.95
81.06
88.13
86.91
75.30
53.13
22.63
-11.77
-44.25
-69.03
-81.88
-81.21
-68.55
-48.06
-25.32
-5.67
7.36
12.87
12.56
9.56
7.17
7.50
10.92
16.43
22.41
27.34
30.20
30.22
26.68
18.77
5.97
-11.41
-31.88
-53.09
-72.48
-88.30
-100.13
-108.87
-116.12
-123.33
-131.05
-138.62
-144.25
-145.60
-140.74
-129.03
-111.78
-91.97
-73.15
-57.71
-45.47
-33.60
-17.57
6.87
41.83
86.64
138.07
191.47
241.87
284.75
316.46
334.55
338.23
328.78
309.61
285.54
261.40
240.46
223.43
208.48
192.17
171.01
142.81
107.51
67.13
25.04
-15.19
-50.83
-80.72
-105.21
-125.92
-144.88
-163.94
-184.16
-205.55
-227.09
-247.05
-263.32
-273.93
-277.53
-273.78
-263.75
-249.91
-235.73
-224.91
-220.21
-222.30
-229.22
-236.70
-239.45
-233.32
-217.31
-194.58
-171.87
-157.54
-158.90
-179.80
-219.38
-271.93
-328.29
-377.98
-411.74
-423.77
-412.89
-382.32
-338.16
-287.23
-235.33
-186.27
-141.95
-102.75
-67.89
-35.45
-2.83
32.16
69.60
106.38
136.40
152.85
151.53
133.32
104.61
75.22
54.84
49.58
60.45
83.93
114.11
144.89
171.43
190.25
198.80
195.19
178.80
151.54
118.58
87.78
67.21
61.83
70.89
87.73
102.25
105.21
92.44
66.68
36.22
11.14
-1.18
1.10
14.07
30.21
41.85
44.18
36.45
21.61
4.46
-10.58
-20.99
-26.65
-28.96
-29.26
-27.37
-21.07
-6.95
17.51
51.77
91.22
128.36
155.84
169.97
172.62
170.43
171.55
181.67
201.58
227.13
251.53
268.35
273.55
265.86
245.81
214.72
174.54
128.46
81.63
40.80
12.61
1.19
6.62
25.08
50.70
78.23
105.04
131.14
157.46
183.74
206.93
221.79
222.77
206.65
174.01
129.19
78.75
29.54
-13.04
-45.95
-68.66
-82.95
-92.60
-102.68
-118.54
-144.06
-180.09
-223.81
-269.52
-310.82
-342.83
-363.46
-373.28
-374.29
-368.71
-358.41
-345.11
-330.87
-317.99
-308.24
-301.76
-296.75
-290.33
-279.90
-264.44
-244.68
-222.06
-197.53
-170.81
-140.81
-106.56
-68.24
-27.32
13.79
52.92
88.95
122.34
154.77
188.42
224.85
264.22
304.98
344.27
378.71
405.15
421.14
425.16
416.69
396.56
367.15
332.12
295.32
259.62
226.21
194.71
164.28
134.78
107.23
83.29
64.36
50.77
41.58
34.93
28.28
18.80
3.77
-18.42
-47.07
-78.42
-106.43
-124.80
-129.38
-119.57
-98.02
-68.83
-35.71
-1.40
31.63
60.25
80.69
90.06
88.42
79.99
72.10
72.22
84.36
106.92
133.03
153.41
160.08
149.16
121.69
82.38
37.28
-8.10
-49.69
-84.64
-110.73
-126.25
-130.43
-124.23
-110.59
-93.95
-78.90
-68.71
-64.51
-65.51
-70.04
-76.79
-85.47
-96.71
-111.23
-128.95
-148.63
-168.31
-186.10
-201.07
-213.45
-224.46
-235.57
-247.85
-261.25
-274.30
-284.12
-286.86
-278.87
-257.98
-224.89
-183.69
-141.01
-103.86
-77.00
-61.03
-52.35
-44.97
-33.48
-15.39
8.18
33.87
58.33
80.09
100.11
120.54
142.99
167.07
190.37
209.66
222.45
227.99
227.16
221.45
211.91
198.98
182.99
164.97
146.98
131.78
121.54
116.87
116.36
116.98
115.12
107.83
93.43
71.69
43.42
10.01
-27.06
-66.76
-108.59
-152.34
-197.27
-241.12
-279.60
-306.83
-317.18
-307.53
-279.10
-237.56
-191.39
-148.91
-115.60
-92.88
-78.81
-70.18
-64.33
-60.05
-57.13
-55.23
-53.10
-48.82
-40.79
-28.68
-13.75
1.78
15.99
28.22
39.17
50.17
62.18
75.00
87.31
97.15
102.86
103.70
99.90
92.38
82.38
71.09
59.71
49.51
41.84
37.96
38.66
44.01
53.38
65.52
78.89
91.97
103.31
111.78
116.54
117.24
114.03
107.55
98.89
89.28
79.81
71.42
64.68
59.88
57.03
55.80
55.64
55.82
55.65
54.63
52.59
49.53
45.54
40.63
34.59
27.23
18.47
8.53
-2.12
-12.72
-22.34
-29.86
-34.15
-34.17
-29.42
-20.18
-7.73
5.97
18.80
29.18
36.53
41.18
43.97
45.64
46.45
46.23
44.68
41.77
37.83
33.45
29.01
24.51
19.53
13.62
6.59
-1.32
-9.47
-17.29
-24.46
-30.97
-36.96
-42.41
-46.99
-50.10
-51.20
-50.08
-47.03
-42.74
-37.97
-33.06
-27.68
-20.75
-10.79
3.60
23.08
47.06
73.48
99.07
119.94
132.41
133.96
124.01
104.13
77.77
49.28
22.81
1.25
-14.17
-23.80
-28.94
-31.21
-32.17
-33.04
-34.75
-37.85
-42.36
-47.74
-52.86
-56.48
-57.65
-56.07
-52.19
-46.97
-41.53
-36.86
-33.64
-32.14
-32.20
-33.11
-33.70
-32.57
-28.49
-20.86
-9.91
3.29
17.24
30.49
41.95
51.01
57.37
60.92
61.56
59.40
54.82
48.62
41.77
35.23
29.58
24.95
21.09
17.65
14.40
11.38
8.78
6.83
5.60
4.93
4.52
4.06
3.26
1.84
-0.52
-4.24
-9.60
-16.48
-24.06
-30.87
-35.12
-35.28
-30.70
-21.89
-10.39
1.77
12.80
21.59
27.89
32.04
34.64
36.18
36.87
36.78
36.05
35.02
34.38
35.08
37.87
43.07
50.16
57.91
64.69
69.15
70.57
69.09
65.46
60.69
55.71
51.18
47.43
44.35
41.23
36.68
28.84
15.97
-2.88
-27.31
-55.57
-85.11
-113.48
-138.94
-160.73
-178.59
-192.30
-201.22
-204.39
-200.94
-190.72
-174.63
-154.65
-133.24
-112.69
-94.47
-78.93
-65.56
-53.40
-41.64
-29.96
-18.56
-7.95
1.30
8.78
14.35
18.02
19.84
19.85
18.05
14.49
9.32
2.81
-4.55
-12.09
-18.91
-24.03
-26.52
-25.77
-21.58
-14.19
-4.18
7.79
21.10
35.11
49.04
61.81
72.03
78.38
79.95
76.66
69.27
59.15
47.80
36.41
25.64
15.69
6.47
-2.04
-9.72
-16.20
-21.11
-24.20
-25.54
-25.49
-24.60
-23.43
-22.42
-21.86
-21.98
-22.94
-24.75
-27.13
-29.37
-30.38
-29.05
-24.71
-17.44
-8.09
1.96
11.34
19.08
24.69
28.13
29.50
28.94
26.61
22.76
17.86
12.41
7.02
2.12
-1.98
-5.12
-7.30
-8.66
-9.36
-9.65
-9.73
-9.72
-9.72
-9.85
-10.30
-11.38
-13.42
-16.68
-21.24
-26.92
-33.24
-39.45
-44.57
-47.64
-47.98
-45.36
-40.30
-33.97
-28.04
-24.24
-23.92
-27.61
-34.71
-43.68
-52.20
-57.73
-58.18
-52.46
-40.82
-24.92
-7.46
8.54
20.56
27.36
29.37
28.61
27.91
29.93
36.16
46.37
58.78
70.80
80.00
84.90
85.35
82.21
76.91
70.94
65.51
61.48
59.50
59.91
62.61
66.99
71.85
75.76
77.50
76.50
73.03
68.10
63.03
59.03
56.83
56.61
57.98
60.29
62.78
64.86
66.19
66.62
66.01
64.14
60.67
55.26
47.83
38.61
28.21
17.39
6.94
-2.55
-10.65
-17.01
-21.41
-23.73
-24.02
-22.45
-19.16
-14.21
-7.39
1.56
12.68
25.53
38.86
50.68
58.54
60.04
53.58
38.81
17.11
-8.62
-34.63
-57.28
-74.22
-85.08
-91.40
-95.89
-101.13
-108.58
-118.05
-128.14
-137.03
-143.41
-146.88
-147.82
-146.80
-144.14
-139.65
-132.84
-123.16
-110.18
-93.64
-73.32
-49.17
-21.50
8.78
39.97
69.81
95.68
115.16
126.46
128.88
122.91
110.26
93.52
75.66
59.33
46.30
37.22
31.66
28.55
26.67
25.07
23.23
21.09
18.80
16.50
14.20
11.62
8.39
4.17
-1.11
-7.24
-13.76
-20.15
-25.93
-30.71
-34.17
-35.95
-35.60
-32.74
-27.26
-19.46
-10.12
-0.36
8.56
15.63
20.22
22.27
22.10
20.30
17.53
14.40
11.39
8.85
6.99
5.88
5.37
5.20
5.07
4.76
4.23
3.56
2.86
2.20
1.46
0.47
-1.02
-3.18
-6.07
-9.66
-13.79
-18.14
-22.18
-25.17
-26.26
-24.80
-20.60
-14.04
-6.12
1.95
8.98
14.19
17.26
18.26
17.42
14.98
11.21
6.44
1.13
-4.11
-8.72
-12.28
-14.65
-15.90
-16.25
-15.92
-15.11
-14.05
-13.05
-12.52
-12.86
-14.28
-16.64
-19.47
-22.13
-24.13
-25.26
-25.64
-25.47
-24.75
-23.22
-20.34
-15.80
-9.68
-2.71
3.96
9.17
12.20
12.91
11.70
9.17
5.91
2.32
-1.31
-4.78
-7.94
-10.69
-13.06
-15.21
-17.34
-19.56
-21.77
-23.72
-25.13
-25.79
-25.73
-25.19
-24.56
-24.21
-24.46
-25.47
-27.35
-30.08
-33.44
-37.02
-40.07
-41.67
-40.91
-37.21
-30.51
-21.36
-10.71
0.26
10.43
18.96
25.38
29.59
31.84
32.60
32.48
32.05
31.75
31.84
32.37
33.25
34.32
35.39
36.28
36.87
37.00
36.60
35.65
34.20
32.30
30.03
27.43
24.55
21.46
18.22
15.06
12.28
10.26
9.42
9.99
11.95
14.95
18.37
21.57
24.07
25.69
26.45
26.51
25.99
24.89
23.12
20.65
17.63
14.30
11.06
8.25
6.14
4.75
3.91
3.30
2.53
1.28
-0.58
-3.05
-5.99
-9.22
-12.61
-16.10
-19.64
-23.26
-26.96
-30.81
-34.83
-39.08
-43.47
-47.76
-51.41
-53.61
-53.42
-50.11
-43.42
-33.83
-22.51
-11.01
-0.74
7.34
12.88
16.04
17.16
16.52
14.30
10.65
5.91
0.68
-4.25
-8.23
-10.85
-12.17
-12.57
-12.59
-12.68
-13.18
-14.23
-15.91
-18.28
-21.34
-25.03
-29.26
-33.88
-38.76
-43.83
-49.01
-53.93
-57.97
-60.26
-59.85
-56.04
-48.68
-38.27
-25.87
-12.78
-0.29
10.65
19.48
25.92
29.88
31.40
30.62
27.92
24.03
19.87
16.42
14.40
14.01
14.94
16.55
18.17
19.31
19.76
19.53
18.69
17.32
15.44
13.02
10.01
6.35
1.94
-3.25
-9.08
-15.17
-20.76
-24.88
-26.55
-25.10
-20.42
-13.03
-3.95
5.59
14.49
21.90
27.33
30.54
31.46
30.15
26.87
22.19
16.93
12.05
8.40
6.40
6.05
6.85
8.15
9.29
9.90
9.92
9.56
9.10
8.67
8.19
7.36
5.76
3.04
-0.93
-6.03
-11.87
-17.80
-22.97
-26.49
-27.53
-25.60
-20.66
-13.17
-4.08
5.51
14.49
22.01
27.53
30.80
31.79
30.66
27.70
23.35
18.17
12.87
8.22
4.89
3.25
3.24
4.38
5.95
7.22
7.78
7.66
7.19
6.74
6.39
5.86
4.60
2.06
-2.04
-7.60
-14.15
-20.90
-26.93
-31.32
-33.18
-31.87
-27.22
-19.54
-9.71
1.03
11.32
20.02
26.34
29.91
30.79
29.31
26.02
21.63
16.87
12.44
8.99
6.89
6.24
6.75
7.77
8.59
8.63
7.73
6.17
4.42
2.96
1.88
0.88
-0.55
-2.90
-6.44
-11.08
-16.45
-21.98
-27.06
-30.98
-33.08
-32.78
-29.77
-24.08
-16.23
-7.08
2.28
10.76
17.45
21.73
23.29
22.21
19.02
14.49
9.64
5.36
2.20
0.29
-0.67
-1.22
-1.86
-2.89
-4.25
-5.72
-7.04
-8.16
-9.29
-10.88
-13.36
-16.88
-21.13
-25.43
-28.95
-31.05
-31.53
-30.59
-28.57
-25.73
-22.12
-17.69
-12.36
-5.96
1.97
12.31
26.12
43.86
64.68
85.96
103.92
114.85
116.54
109.22
95.24
77.99
60.48
44.44
30.20
17.30
5.26
-5.97
-16.17
-25.18
-33.27
-41.17
-49.70
-59.27
-69.55
-79.64
-88.50
-95.57
-100.99
-105.22
-108.32
-109.31
-106.07
-96.06
-77.36
-49.54
-13.79
27.57
71.87
116.63
159.56
198.31
230.29
252.99
264.73
265.36
256.48
241.10
222.55
203.72
186.31
170.92
157.33
144.98
133.37
122.18
111.32
100.79
90.62
80.79
71.12
61.22
50.39
37.60
21.84
2.45
-20.46
-45.81
-71.62
-95.59
-115.58
-130.17
-138.67
-141.03
-137.65
-129.26
-116.97
-102.30
-87.03
-72.63
-59.91
-48.71
-38.05
-26.83
-14.27
-0.27
14.80
30.42
46.22
61.85
76.65
89.28
97.65
99.38
92.63
76.82
53.00
23.52
-8.85
-41.79
-73.93
-104.79
-134.16
-161.50
-185.71
-205.32
-219.12
-226.60
-228.01
-223.95
-214.89
-200.92
-181.99
-158.57
-132.08
-104.86
-79.66
-58.75
-43.23
-32.81
-26.18
-21.65
-17.87
-14.08
-10.15
-6.32
-2.88
0.04
2.43
4.47
6.31
8.04
9.63
10.95
11.86
12.29
12.26
11.79
10.85
9.36
7.13
4.10
0.32
-3.89
-8.12
-11.82
-14.56
-15.94
-15.76
-14.01
-10.89
-6.81
-2.30
2.14
6.11
9.40
11.83
13.29
13.66
12.90
11.14
8.68
5.89
3.13
0.60
-1.57
-3.30
-4.50
-5.11
-5.13
-4.72
-4.19
-3.81
-3.73
-3.95
-4.35
-4.83
-5.34
-5.97
-6.75
-7.65
-8.62
-9.55
-10.28
-10.61
-10.27
-9.02
-6.75
-3.63
-0.05
3.51
6.66
9.32
11.53
13.39
14.82
15.51
15.17
13.71
11.39
8.76
6.45
4.91
4.27
4.37
4.95
5.74
6.52
7.13
7.43
7.26
6.53
5.28
3.67
1.94
0.25
-1.36
-2.99
-4.82
-6.98
-9.39
-11.79
-13.83
-15.09
-15.22
-14.03
-11.47
-7.65
-2.85
2.53
7.97
12.99
17.21
20.42
22.65
24.04
24.81
25.16
25.24
25.19
25.09
25.01
24.91
24.64
24.00
22.79
20.90
18.43
15.63
12.90
10.57
8.70
7.05
5.15
2.53
-0.98
-5.15
-9.39
-12.98
-15.36
-16.30
-15.84
-14.18
-11.52
-7.98
-3.71
1.06
5.93
10.39
13.94
16.23
17.12
16.69
15.21
13.10
10.87
9.00
7.88
7.66
8.24
9.22
10.08
10.35
9.72
8.25
6.22
4.06
2.15
0.75
-0.10
-0.54
-0.88
-1.54
-2.88
-5.07
-7.91
-10.65
-12.23
-11.49
-7.75
-1.03
7.75
17.12
25.47
31.68
35.32
36.84
37.10
36.98
36.89
36.58
35.35
32.44
27.58
21.21
14.32
8.05
3.19
-0.08
-2.34
-4.69
-8.51
-15.16
-25.69
-40.34
-58.05
-76.39
-92.07
-102.18
-105.41
-102.97
-97.98
-94.14
-93.97
-97.71
-103.53
-108.45
-109.70
-105.51
-95.57
-80.98
-64.21
-48.73
-38.34
-35.99
-42.40
-55.48
-70.83
-83.36
-89.30
-87.21
-78.02
-63.76
-46.65
-28.61
-11.71
1.35
7.57
5.02
-5.30
-18.63
-27.52
-24.87
-7.42
22.12
55.84
83.65
97.17
92.29
69.61
33.11
-11.51
-57.83
-98.99
-127.98
-139.06
-129.84
-103.10
-66.89
-32.46
-10.64
-8.45
-27.39
-63.75
-110.38
-159.19
-203.39
-238.97
-265.23
-284.18
-299.02
-312.27
-324.45
-334.13
-338.99
-337.46
-329.76
-317.76
-303.80
-289.28
-274.13
-257.13
-236.99
-213.40
-187.27
-160.29
-134.07
-109.45
-86.28
-63.70
-40.71
-16.69
8.30
33.61
58.23
81.31
102.49
122.11
141.15
160.92
182.72
207.55
235.97
268.00
302.96
339.21
374.08
404.17
425.97
436.74
435.33
422.39
400.14
371.64
339.95
307.55
275.98
246.02
218.23
193.43
173.15
159.43
154.05
157.49
168.19
182.74
197.01
207.85
214.09
216.48
216.53
214.92
210.54
200.68
182.40
154.18
117.13
74.89
32.55
-5.18
-35.37
-57.69
-73.91
-86.78
-98.63
-110.43
-121.73
-131.30
-138.18
-142.29
-144.47
-145.97
-147.71
-150.06
-152.83
-155.70
-158.42
-160.78
-162.39
-162.42
-159.67
-152.83
-140.87
-123.41
-100.79
-73.95
-44.27
-13.38
16.93
44.86
68.87
87.88
101.55
110.22
114.70
116.01
115.00
112.37
108.67
104.47
100.37
96.90
94.31
92.45
90.80
88.71
85.72
81.72
76.90
71.60
66.10
60.49
54.62
48.14
40.64
31.80
21.63
10.69
0.11
-8.55
-13.80
-14.72
-11.28
-4.38
4.52
13.84
22.30
29.05
33.57
35.59
34.98
31.91
26.88
20.87
15.02
10.47
7.88
7.31
8.24
9.89
11.55
12.82
13.67
14.29
14.82
15.21
15.22
14.50
12.74
9.73
5.43
0.02
-6.06
-12.07
-17.02
-19.84
-19.71
-16.31
-9.97
-1.57
7.75
16.86
24.93
31.49
36.35
39.44
40.78
40.43
38.60
35.70
32.33
29.17
26.75
25.36
24.89
24.98
25.19
25.15
24.74
24.00
23.04
21.88
20.43
18.48
15.82
12.35
8.08
3.20
-1.98
-6.95
-11.05
-13.48
-13.49
-10.58
-4.72
3.55
13.24
23.14
32.08
39.23
44.16
46.77
47.23
45.83
43.03
39.42
35.73
32.61
30.44
29.07
27.88
25.94
22.47
17.17
10.36
2.85
-4.50
-11.10
-16.80
-21.83
-26.54
-31.15
-35.70
-40.14
-44.42
-48.53
-52.42
-55.77
-57.95
-58.09
-55.36
-49.35
-40.26
-29.00
-16.88
-5.29
4.69
12.46
17.88
21.16
22.65
22.70
21.65
19.83
17.63
15.45
13.70
12.66
12.46
13.04
14.14
15.41
16.48
17.04
16.90
16.06
14.59
12.65
10.37
7.85
5.12
2.18
-1.00
-4.52
-8.51
-13.07
-18.09
-23.12
-27.33
-29.71
-29.32
-25.74
-19.21
-10.66
-1.37
7.34
14.52
19.69
22.84
24.20
24.16
23.09
21.26
18.95
16.40
13.88
11.68
10.04
9.15
9.01
9.45
10.12
10.62
10.59
9.89
8.53
6.69
4.57
2.31
-0.03
-2.47
-5.03
-7.75
-10.68
-13.92
-17.53
-21.46
-25.38
-28.65
-30.44
-30.02
-26.97
-21.45
-14.12
-5.99
1.91
8.78
14.14
17.88
20.09
20.95
20.63
19.33
17.27
14.79
12.30
10.19
8.73
8.00
7.86
8.13
8.63
9.35
10.35
11.59
12.91
13.97
14.38
13.90
12.58
10.70
8.69
6.90
5.50
4.39
3.31
1.95
0.13
-2.06
-4.24
-5.74
-5.73
-3.41
1.65
9.42
19.25
29.90
39.86
47.65
52.25
53.29
51.21
47.08
42.34
38.45
36.54
37.16
40.31
45.43
51.69
58.26
64.47
70.03
75.01
79.87
85.33
92.11
100.52
109.84
118.03
121.82
117.69
103.18
78.28
45.90
11.08
-20.78
-45.94
-63.48
-75.11
-83.82
-92.32
-102.34
-114.72
-130.38
-150.75
-177.61
-211.93
-252.91
-297.61
-341.69
-380.76
-411.48
-431.87
-440.81
-437.28
-420.05
-388.14
-341.63
-282.45
-214.44
-142.65
-72.16
-7.06
50.18
98.57
138.08
169.10
192.11
207.69
216.62
219.97
218.99
214.78
208.00
198.77
186.86
172.02
154.34
134.24
112.42
89.63
66.42
43.27
20.57
-1.17
-21.35
-39.24
-54.23
-66.09
-75.22
-82.74
-90.29
-99.46
-111.01
-124.47
-138.07
-149.36
-156.17
-157.46
-153.67
-146.35
-137.32
-127.87
-118.43
-108.71
-98.11
-85.93
-71.38
-53.49
-31.23
-4.02
27.61
61.76
95.36
125.08
148.38
164.08
172.35
174.12
170.48
162.35
150.49
135.74
118.99
101.00
82.28
63.21
44.43
27.11
13.01
3.94
1.04
4.24
12.15
22.58
33.26
42.44
49.12
53.02
54.16
52.71
48.84
42.82
35.13
26.54
18.01
10.47
4.54
0.33
-2.65
-5.27
-8.53
-13.18
-19.46
-26.95
-34.75
-41.65
-46.47
-48.33
-46.85
-42.23
-35.15
-26.57
-17.51
-8.86
-1.24
4.95
9.50
12.28
13.25
12.54
10.56
8.03
5.90
5.10
6.21
9.29
13.78
18.69
23.05
26.20
28.10
29.22
30.35
32.17
34.93
38.35
41.77
44.37
45.54
45.07
43.35
41.34
40.56
42.74
49.36
61.05
77.05
95.07
111.64
122.94
125.85
118.80
102.09
77.52
47.63
14.86
-19.08
-53.32
-87.65
-122.08
-156.54
-190.66
-223.70
-254.70
-282.56
-306.09
-323.93
-334.34
-335.24
-324.30
-299.57
-260.23
-207.24
-143.66
-74.23
-4.39
60.92
118.04
165.02
201.33
227.48
244.63
254.28
257.96
256.87
251.54
241.86
227.56
208.88
186.99
163.83
141.46
121.15
103.13
86.91
72.21
59.65
50.58
46.39
47.56
53.25
61.76
71.62
82.29
93.95
106.51
118.53
127.05
128.62
121.08
105.01
83.79
62.25
44.52
32.41
25.04
19.86
14.23
6.62
-3.00
-13.79
-24.93
-36.17
-48.08
-61.71
-78.37
-99.25
-125.25
-156.67
-193.02
-232.95
-274.16
-313.73
-348.53
-375.63
-392.69
-398.24
-391.89
-374.31
-347.17
-312.76
-273.79
-232.94
-192.64
-154.85
-120.92
-91.53
-66.71
-45.94
-28.45
-13.46
-0.47
10.74
20.12
27.58
33.09
36.73
38.58
38.77
37.47
35.15
32.57
30.83
31.00
33.78
39.16
46.37
54.14
61.13
66.36
69.46
70.62
70.37
69.23
67.52
65.36
62.74
59.76
56.66
53.82
51.54
49.91
48.78
47.78
46.57
44.91
42.81
40.38
37.78
35.11
32.33
29.38
26.17
22.66
18.84
14.67
10.15
5.31
0.45
-3.84
-6.69
-7.15
-4.53
1.31
9.87
20.12
30.81
40.83
49.43
56.18
60.83
63.07
62.47
58.68
51.64
41.83
30.25
18.17
6.85
-2.85
-10.50
-16.09
-19.88
-22.22
-23.43
-23.83
-23.69
-23.22
-22.55
-21.76
-20.86
-19.92
-19.04
-18.47
-18.47
-19.23
-20.62
-22.16
-22.99
-22.13
-18.86
-13.07
-5.37
3.13
11.15
17.73
22.45
25.30
26.54
26.38
24.97
22.43
19.00
15.21
11.71
9.12
7.84
7.87
8.88
10.36
11.76
12.71
13.10
12.97
12.51
11.84
10.99
9.85
8.26
6.09
3.28
-0.13
-3.98
-8.06
-12.05
-15.51
-17.92
-18.73
-17.52
-14.10
-8.67
-1.80
5.69
12.90
19.03
23.53
26.19
27.05
26.36
24.43
21.64
18.37
15.03
12.05
9.81
8.54
8.20
8.51
9.00
9.16
8.64
7.35
5.44
3.25
1.16
-0.57
-1.86
-2.87
-3.90
-5.35
-7.57
-10.73
-14.75
-19.22
-23.42
-26.47
-27.53
-26.02
-21.83
-15.32
-7.22
1.50
9.88
17.14
22.69
26.21
27.66
27.21
25.26
22.39
19.18
16.17
13.71
11.94
10.87
10.36
10.27
10.44
10.67
10.81
10.68
10.18
9.24
7.88
6.20
4.31
2.34
0.32
-1.76
-4.03
-6.66
-9.77
-13.32
-16.94
-20.00
-21.69
-21.30
-18.51
-13.49
-6.89
0.36
7.28
13.09
17.31
19.73
20.41
19.53
17.39
14.33
10.77
7.18
4.00
1.64
0.32
0.06
0.65
1.66
2.65
3.21
3.17
2.58
1.64
0.56
-0.51
-1.62
-2.88
-4.49
-6.60
-9.28
-12.45
-15.94
-19.40
-22.33
-24.15
-24.27
-22.31
-18.22
-12.33
-5.40
1.68
8.06
13.12
16.55
18.30
18.42
17.03
14.36
10.74
6.71
2.91
-0.09
-1.93
-2.55
-2.17
-1.16
0.11
1.30
2.19
2.58
2.36
1.47
0.04
-1.79
-3.80
-5.91
-8.13
-10.58
-13.39
-16.51
-19.68
-22.39
-24.00
-23.88
-21.66
-17.34
-11.34
-4.42
2.53
8.70
13.56
16.84
18.47
18.50
17.03
14.28
10.59
6.53
2.74
-0.20
-1.97
-2.61
-2.49
-2.10
-1.86
-1.98
-2.45
-3.13
-3.87
-4.63
-5.48
-6.52
-7.87
-9.62
-11.85
-14.62
-17.89
-21.43
-24.79
-27.28
-28.21
-27.03
-23.58
-18.12
-11.30
-3.91
3.23
9.47
14.36
17.64
19.28
19.35
18.05
15.69
12.66
9.42
6.49
4.30
3.12
2.92
3.42
4.15
4.71
4.86
4.60
4.07
3.41
2.62
1.53
-0.03
-2.17
-4.86
-7.99
-11.46
-15.18
-18.97
-22.47
-25.05
-25.95
-24.58
-20.80
-15.01
-8.00
-0.77
5.85
11.35
15.48
18.20
19.45
19.21
17.53
14.68
11.13
7.53
4.50
2.49
1.61
1.69
2.35
3.15
3.77
4.04
3.94
3.49
2.73
1.67
0.34
-1.24
-3.04
-5.10
-7.54
-10.47
-13.92
-17.66
-21.11
-23.48
-24.02
-22.25
-18.19
-12.39
-5.69
1.02
7.02
11.86
15.35
17.45
18.19
17.66
16.01
13.49
10.46
7.35
4.57
2.47
1.29
1.04
1.55
2.47
3.37
3.89
3.86
3.33
2.48
1.49
0.41
-0.86
-2.49
-4.62
-7.32
-10.51
-14.01
-17.51
-20.54
-22.50
-22.78
-20.91
-16.76
-10.70
-3.50
3.84
10.40
15.50
18.86
20.44
20.43
19.06
16.60
13.44
10.01
6.85
4.42
3.03
2.69
3.17
4.05
4.89
5.36
5.31
4.77
3.83
2.64
1.33
-0.08
-1.58
-3.27
-5.27
-7.69
-10.57
-13.79
-17.00
-19.63
-21.04
-20.62
-18.08
-13.51
-7.39
-0.47
6.42
12.52
17.27
20.26
21.34
20.55
18.21
14.86
11.19
7.85
5.34
3.91
3.58
4.17
5.36
6.74
7.94
8.67
8.82
8.44
7.71
6.83
5.88
4.79
3.41
1.58
-0.78
-3.59
-6.65
-9.64
-12.22
-14.00
-14.66
-13.97
-11.87
-8.45
-4.01
1.01
6.07
10.53
13.84
15.52
15.37
13.47
10.17
6.01
1.58
-2.57
-6.03
-8.57
-10.11
-10.74
-10.68
-10.26
-9.80
-9.53
-9.51
-9.69
-9.93
-10.16
-10.43
-10.90
-11.79
-13.27
-15.41
-18.09
-20.95
-23.48
-25.02
-24.96
-22.89
-18.74
-12.83
-5.83
1.41
8.06
13.53
17.47
19.74
20.37
19.48
17.31
14.25
10.84
7.66
5.22
3.83
3.49
3.94
4.78
5.57
6.02
5.98
5.43
4.48
3.26
1.90
0.43
-1.19
-3.09
-5.44
-8.31
-11.68
-15.27
-18.62
-21.10
-21.99
-20.76
-17.21
-11.62
-4.70
2.59
9.31
14.80
18.72
21.01
21.74
21.06
19.12
16.20
12.76
9.34
6.50
4.63
3.85
3.96
4.62
5.37
5.87
5.91
5.48
4.66
3.59
2.38
1.08
-0.35
-1.96
-3.83
-6.03
-8.63
-11.67
-15.04
-18.35
-20.98
-22.12
-21.10
-17.63
-11.97
-4.91
2.48
9.22
14.59
18.26
20.20
20.56
19.51
17.29
14.22
10.75
7.39
4.64
2.86
2.15
2.41
3.32
4.50
5.56
6.21
6.30
5.79
4.77
3.39
1.74
-0.10
-2.08
-4.23
-6.60
-9.24
-12.16
-15.27
-18.33
-20.91
-22.40
-22.21
-19.94
-15.58
-9.57
-2.72
4.00
9.78
14.16
17.03
18.57
19.01
18.47
16.99
14.57
11.41
7.95
4.79
2.54
1.55
1.79
2.90
4.33
5.57
6.28
6.36
5.84
4.79
3.31
1.45
-0.71
-3.01
-5.31
-7.57
-9.89
-12.48
-15.45
-18.67
-21.64
-23.59
-23.75
-21.67
-17.44
-11.61
-5.05
1.41
7.19
11.93
15.48
17.70
18.49
17.83
15.86
12.95
9.60
6.32
3.57
1.64
0.70
0.71
1.51
2.74
4.00
4.88
5.08
4.54
3.39
1.87
0.20
-1.44
-3.06
-4.68
-6.43
-8.47
-10.99
-14.07
-17.54
-20.90
-23.35
-24.02
-22.31
-18.11
-11.92
-4.69
2.53
8.85
13.71
16.90
18.40
18.37
17.00
14.59
11.50
8.16
5.03
2.51
0.93
0.41
0.91
2.13
3.62
4.94
5.71
5.81
5.27
4.27
2.98
1.47
-0.25
-2.21
-4.44
-6.91
-9.60
-12.47
-15.41
-18.23
-20.54
-21.82
-21.56
-19.40
-15.32
-9.67
-3.16
3.38
9.11
13.43
16.07
17.01
16.47
14.73
12.14
9.03
5.82
2.94
0.84
-0.18
-0.06
0.92
2.27
3.47
4.14
4.18
3.73
3.05
2.33
1.57
0.62
-0.71
-2.58
-5.04
-8.03
-11.40
-14.96
-18.37
-21.15
-22.75
-22.63
-20.49
-16.37
-10.69
-4.15
2.39
8.19
12.68
15.55
16.75
16.45
14.92
12.54
9.67
6.70
4.00
1.89
0.59
0.21
0.66
1.67
2.85
3.85
4.41
4.47
4.07
3.34
2.39
1.25
-0.15
-1.90
-4.10
-6.82
-9.96
-13.29
-16.38
-18.68
-19.61
-18.73
-15.87
-11.23
-5.36
1.01
7.12
12.36
16.33
18.85
19.89
19.52
17.94
15.48
12.62
9.88
7.76
6.61
6.52
7.36
8.81
10.45
11.94
13.07
13.82
14.28
14.57
14.72
14.59
13.99
12.81
11.05
8.93
6.71
4.61
2.73
1.09
-0.29
-1.35
-1.99
-2.07
-1.52
-0.34
1.36
3.38
5.42
7.06
7.81
7.23
5.07
1.41
-3.33
-8.48
-13.32
-17.27
-20.00
-21.46
-21.85
-21.51
-20.82
-20.14
-19.69
-19.55
-19.63
-19.74
-19.65
-19.21
-18.42
-17.45
-16.56
-16.05
-16.13
-16.85
-18.07
-19.40
-20.30
-20.12
-18.31
-14.65
-9.33
-2.92
3.73
9.82
14.75
18.24
20.26
20.92
20.38
18.82
16.49
13.76
11.08
8.90
7.50
6.92
7.00
7.42
7.89
8.16
8.15
7.81
7.15
6.19
4.96
3.51
1.92
0.22
-1.60
-3.58
-5.75
-7.99
-10.00
-11.25
-11.20
-9.47
-6.02
-1.23
4.23
9.57
14.11
17.43
19.38
19.98
19.36
17.75
15.45
12.85
10.40
8.49
7.41
7.19
7.75
8.89
10.42
12.14
13.88
15.44
16.59
17.20
17.24
16.88
16.42
16.16
16.29
16.79
17.51
18.33
19.39
21.12
24.14
29.01
35.97
44.75
54.62
64.55
73.47
80.40
84.59
85.63
83.64
79.40
74.41
70.50
69.00
69.87
71.20
69.59
61.55
45.15
21.35
-6.10
-31.97
-51.49
-61.75
-62.07
-53.53
-38.37
-19.75
-1.79
10.61
12.85
2.21
-20.78
-52.22
-86.30
-117.59
-142.89
-161.61
-174.74
-183.18
-186.80
-184.63
-176.02
-161.60
-143.48
-124.42
-106.68
-91.36
-78.40
-67.22
-57.54
-49.62
-44.11
-41.32
-40.75
-41.03
-40.35
-37.21
-30.88
-21.59
-10.25
1.97
13.87
24.38
32.70
38.40
41.76
43.78
46.00
49.88
56.03
63.75
71.21
76.22
77.15
73.54
66.20
56.56
46.03
35.55
25.52
16.05
7.22
-0.83
-8.01
-14.34
-20.00
-25.31
-30.51
-35.69
-40.74
-45.40
-49.36
-52.41
-54.50
-55.83
-56.82
-58.04
-59.94
-62.71
-66.17
-69.85
-73.27
-76.14
-78.46
-80.47
-82.38
-84.23
-85.61
-85.77
-83.77
-78.78
-70.36
-58.75
-44.76
-29.72
-15.02
-1.81
9.35
18.48
25.98
32.39
38.04
43.02
47.22
50.52
52.96
54.74
56.17
57.53
58.95
60.36
61.59
62.50
63.09
63.53
64.04
64.69
65.29
65.44
64.71
62.92
60.28
57.38
54.88
53.21
52.43
52.22
52.14
51.84
51.19
50.25
49.10
47.78
46.23
44.37
42.21
39.89
37.62
35.65
34.17
33.20
32.60
32.06
31.21
29.72
27.47
24.58
21.35
18.18
15.39
13.18
11.60
10.64
10.21
10.18
10.37
10.59
10.74
10.93
11.52
13.01
15.84
20.20
25.92
32.52
39.51
46.57
53.69
61.06
68.81
76.81
84.66
91.87
98.15
103.45
107.81
111.00
112.28
110.54
104.79
94.71
80.96
64.83
47.61
30.05
12.05
-6.95
-27.35
-48.98
-71.03
-92.50
-112.61
-130.95
-147.33
-161.32
-171.94
-177.76
-177.32
-169.72
-155.12
-134.79
-110.87
-85.61
-60.83
-37.47
-15.64
5.06
24.89
43.68
60.72
75.17
86.53
94.89
100.80
104.70
106.30
104.41
97.31
83.65
63.34
37.94
10.46
-15.54
-36.80
-51.28
-58.52
-59.75
-57.55
-55.31
-56.51
-63.96
-79.19
-102.10
-130.95
-162.56
-192.76
-217.17
-232.00
-234.97
-225.87
-206.51
-180.08
-149.94
-118.58
-87.11
-55.51
-23.41
9.08
41.02
70.80
96.75
117.68
133.22
143.93
151.03
156.10
160.69
165.98
172.31
178.95
183.99
184.57
177.58
160.65
133.25
97.35
57.28
18.69
-13.02
-34.20
-43.83
-43.36
-35.84
-24.69
-12.69
-1.63
7.62
14.76
19.70
22.55
23.66
23.73
23.68
24.35
26.04
28.22
29.56
28.39
23.47
14.61
3.02
-9.05
-19.25
-26.10
-29.76
-31.98
-35.34
-42.04
-52.87
-66.85
-81.68
-94.86
-104.61
-110.58
-113.85
-116.48
-121.04
-130.01
-145.26
-167.29
-194.50
-222.90
-246.61
-259.40
-256.91
-238.49
-207.71
-171.16
-136.01
-107.34
-86.69
-72.27
-60.46
-47.90
-32.84
-15.37
3.33
21.90
39.49
55.67
70.20
82.61
92.35
99.13
103.24
105.65
107.65
110.34
114.23
119.17
124.52
129.60
133.93
137.44
140.52
144.01
148.97
156.24
165.88
176.73
186.35
191.57
189.48
178.35
158.05
129.73
95.00
55.32
12.19
-31.93
-72.59
-103.17
-116.31
-106.60
-73.21
-21.16
39.81
98.19
144.39
173.16
184.22
180.83
167.60
148.67
126.94
104.28
82.10
61.81
44.80
32.06
23.79
19.29
17.15
15.76
13.83
10.89
7.39
4.39
2.99
3.66
5.94
8.53
9.99
9.32
6.37
1.60
-4.47
-11.83
-21.07
-32.93
-47.67
-64.58
-82.12
-98.36
-111.71
-121.38
-127.27
-129.69
-129.04
-125.70
-120.26
-113.63
-106.98
-101.31
-97.06
-93.85
-90.67
-86.36
-80.05
-71.47
-61.00
-49.46
-37.83
-27.08
-18.02
-11.24
-7.10
-5.53
-6.10
-8.06
-10.52
-12.77
-14.41
-15.39
-15.84
-15.94
-15.71
-15.14
-14.26
-13.30
-12.65
-12.71
-13.67
-15.39
-17.44
-19.32
-20.72
-21.70
-22.68
-24.13
-26.29
-28.90
-31.13
-31.88
-30.17
-25.62
-18.58
-10.05
-1.30
6.52
12.67
16.92
19.37
20.29
19.98
18.68
16.61
14.00
11.16
8.35
5.82
3.70
2.01
0.63
-0.72
-2.39
-4.81
-8.32
-13.13
-19.33
-26.86
-35.66
-45.61
-56.50
-67.92
-79.15
-89.20
-96.99
-101.56
-102.33
-99.14
-92.13
-81.75
-68.59
-53.53
-37.66
-22.20
-8.20
3.79
13.94
23.04
32.25
42.67
54.93
69.12
84.71
100.77
116.08
129.34
139.41
145.47
147.24
144.99
139.44
131.54
122.18
112.08
101.66
91.19
80.85
70.78
61.12
51.92
43.21
35.04
27.54
20.99
15.78
12.32
10.77
10.98
12.36
14.10
15.36
15.58
14.58
12.60
10.06
7.38
4.79
2.35
-0.08
-2.65
-5.51
-8.74
-12.33
-16.19
-20.06
-23.70
-26.80
-29.21
-30.88
-31.90
-32.55
-33.30
-34.93
-38.42
-44.80
-54.65
-67.82
-83.31
-99.80
-116.10
-131.61
-145.88
-158.03
-166.10
-167.25
-158.89
-140.06
-112.45
-80.11
-48.12
-20.75
-0.03
14.39
24.51
32.58
40.23
48.04
55.92
63.51
70.49
76.68
81.88
85.78
87.88
87.69
84.79
79.09
70.86
60.63
49.05
36.56
23.29
9.04
-6.48
-23.25
-40.73
-57.79
-73.00
-85.09
-93.36
-97.82
-99.14
-98.32
-96.42
-94.30
-92.50
-91.19
-90.20
-89.01
-86.94
-83.37
-77.94
-70.65
-61.78
-51.75
-40.84
-29.20
-16.96
-4.46
7.60
18.24
26.46
31.63
33.75
33.44
31.67
29.43
27.42
25.87
24.73
23.86
23.32
23.54
25.22
29.04
35.43
44.26
54.81
66.03
76.73
85.95
93.06
97.75
100.00
100.00
98.16
95.11
91.59
88.26
85.41
82.90
80.19
76.67
71.94
65.99
59.05
51.48
43.52
35.25
26.72
18.05
9.46
1.17
-6.82
-14.76
-23.12
-32.21
-41.89
-51.41
-59.55
-65.04
-67.08
-65.68
-61.67
-56.38
-51.25
-47.34
-45.24
-45.07
-46.64
-49.55
-53.36
-57.59
-61.78
-65.57
-68.73
-71.21
-73.02
-74.13
-74.35
-73.37
-70.93
-66.91
-61.43
-54.86
-47.62
-40.07
-32.49
-25.14
-18.43
-12.90
-9.18
-7.67
-8.28
-10.22
-12.18
-12.64
-10.48
-5.26
2.61
12.11
22.05
31.39
39.47
45.95
50.68
53.60
54.71
54.15
52.29
49.69
46.95
44.61
42.99
42.20
42.17
42.66
43.37
44.00
44.31
44.17
43.60
42.69
41.55
40.23
38.68
36.74
34.25
31.15
27.55
23.87
20.80
19.14
19.63
22.65
28.11
35.51
44.04
52.86
61.29
68.82
75.15
80.08
83.47
85.18
85.08
83.11
79.33
73.88
67.01
58.96
49.97
40.24
29.99
19.53
9.21
-0.54
-9.40
-17.25
-24.26
-30.80
-37.33
-44.24
-51.79
-60.08
-68.94
-77.86
-85.94
-91.95
-94.60
-92.90
-86.56
-76.11
-62.80
-48.29
-34.16
-21.58
-11.19
-3.23
2.33
5.61
6.81
6.27
4.53
2.30
0.31
-0.86
-1.04
-0.44
0.47
1.21
1.45
1.18
0.59
-0.11
-0.78
-1.48
-2.38
-3.68
-5.50
-7.75
-10.12
-12.07
-13.00
-12.39
-9.99
-5.89
-0.57
5.32
11.07
16.14
20.16
22.90
24.21
23.91
21.91
18.28
13.41
7.93
2.59
-1.93
-5.17
-7.03
-7.62
-7.21
-6.07
-4.47
-2.67
-0.97
0.35
1.00
0.82
-0.27
-2.28
-5.13
-8.58
-12.13
-15.08
-16.59
-16.02
-13.13
-8.23
-2.01
4.63
10.96
16.47
20.86
23.97
25.63
25.74
24.41
21.99
19.07
16.37
14.42
13.43
13.27
13.56
13.89
13.99
13.78
13.33
12.72
11.97
10.96
9.48
7.28
4.17
0.14
-4.61
-9.62
-14.18
-17.45
-18.68
-17.46
-13.82
-8.27
-1.65
5.19
11.53
16.88
20.94
23.50
24.45
23.83
21.87
19.05
15.92
13.02
10.66
8.93
7.73
6.87
6.16
5.47
4.69
3.74
2.63
1.38
0.02
-1.52
-3.39
-5.82
-8.93
-12.60
-16.33
-19.32
-20.73
-19.91
-16.74
-11.66
-5.48
0.86
6.62
11.41
15.10
17.70
19.18
19.45
18.51
16.52
13.87
11.08
8.63
6.81
5.63
4.98
4.65
4.48
4.34
4.17
3.90
3.45
2.77
1.73
0.19
-2.01
-4.99
-8.69
-12.80
-16.76
-19.82
-21.29
-20.68
-17.94
-13.40
-7.77
-1.82
3.78
8.57
12.36
15.05
16.60
16.96
16.13
14.32
11.99
9.72
8.01
7.10
6.89
7.03
7.12
6.89
6.29
5.44
4.50
3.56
2.64
1.58
0.16
-1.86
-4.68
-8.35
-12.69
-17.21
-21.24
-23.99
-24.82
-23.40
-19.82
-14.58
-8.41
-2.06
3.88
9.02
13.15
16.07
17.63
17.73
16.49
14.29
11.73
9.42
7.77
6.85
6.48
6.34
6.18
5.95
5.66
5.35
4.96
4.32
3.26
1.68
-0.43
-3.02
-6.04
-9.45
-13.19
-17.06
-20.61
-23.21
-24.19
-23.06
-19.73
-14.56
-8.28
-1.71
4.44
9.72
13.91
16.96
18.87
19.66
19.33
18.02
16.00
13.72
11.66
10.21
9.57
9.68
10.20
10.72
10.84
10.36
9.27
7.73
5.96
4.20
2.52
0.94
-0.64
-2.38
-4.46
-7.05
-10.21
-13.85
-17.60
-20.89
-23.02
-23.39
-21.67
-17.94
-12.67
-6.53
-0.24
5.58
10.53
14.35
16.92
18.21
18.32
17.50
16.11
14.56
13.19
12.20
11.63
11.37
11.28
11.20
11.09
10.92
10.72
10.47
10.10
9.49
8.51
7.10
5.30
3.25
1.13
-0.91
-2.80
-4.60
-6.39
-8.31
-10.50
-13.00
-15.78
-18.63
-21.16
-22.83
-23.10
-21.60
-18.30
-13.53
-7.91
-2.16
3.11
7.54
11.00
13.49
15.04
15.71
15.54
14.65
13.31
11.85
10.63
9.95
9.91
10.42
11.23
12.04
12.57
12.69
12.39
11.73
10.83
9.73
8.45
6.94
5.19
3.28
1.35
-0.44
-1.97
-3.29
-4.56
-6.01
-7.82
-10.04
-12.58
-15.24
-17.80
-19.97
-21.50
-22.04
-21.30
-19.10
-15.48
-10.77
-5.50
-0.31
4.29
7.96
10.59
12.22
12.93
12.83
12.05
10.78
9.29
7.89
6.88
6.47
6.68
7.32
8.07
8.61
8.69
8.26
7.44
6.43
5.43
4.53
3.66
2.65
1.36
-0.25
-2.08
-3.92
-5.59
-6.98
-8.15
-9.27
-10.52
-12.05
-13.91
-16.06
-18.40
-20.72
-22.72
-23.95
-23.96
-22.39
-19.19
-14.64
-9.33
-3.96
0.85
4.70
7.36
8.81
9.08
8.35
6.87
5.01
3.24
1.95
1.40
1.61
2.41
3.55
4.73
5.72
6.40
6.74
6.77
6.53
6.03
5.23
4.06
2.53
0.72
-1.19
-3.00
-4.54
-5.77
-6.80
-7.80
-9.00
-10.53
-12.40
-14.52
-16.68
-18.59
-19.92
-20.35
-19.60
-17.52
-14.14
-9.69
-4.64
0.42
4.87
8.18
10.07
10.54
9.81
8.28
6.37
4.47
2.86
1.74
1.16
1.08
1.36
1.85
2.39
2.93
3.44
3.92
4.30
4.44
4.16
3.29
1.79
-0.20
-2.43
-4.58
-6.39
-7.71
-8.53
-9.00
-9.36
-9.93
-11.05
-12.90
-15.42
-18.25
-20.79
-22.29
-22.14
-20.11
-16.39
-11.58
-6.45
-1.70
2.17
4.94
6.61
7.28
7.09
6.21
4.84
3.20
1.59
0.27
-0.58
-0.85
-0.61
-0.03
0.65
1.23
1.61
1.77
1.74
1.54
1.13
0.40
-0.71
-2.23
-4.08
-6.11
-8.17
-10.09
-11.77
-13.18
-14.38
-15.52
-16.80
-18.35
-20.09
-21.68
-22.56
-22.19
-20.26
-16.85
-12.32
-7.27
-2.27
2.23
5.95
8.70
10.36
10.89
10.41
9.17
7.58
6.10
5.05
4.57
4.57
4.80
5.03
5.11
5.05
4.92
4.82
4.74
4.58
4.18
3.44
2.38
1.11
-0.16
-1.33
-2.34
-3.20
-3.95
-4.63
-5.31
-6.07
-7.05
-8.37
-9.99
-11.60
-12.69
-12.69
-11.23
-8.33
-4.42
-0.22
3.57
6.45
8.27
9.13
9.27
8.94
8.30
7.50
6.67
5.98
5.57
5.53
5.81
6.29
6.82
7.28
7.61
7.78
7.79
7.57
7.07
6.23
5.07
3.68
2.18
0.70
-0.75
-2.28
-4.10
-6.40
-9.27
-12.50
-15.61
-17.95
-18.92
-18.19
-15.84
-12.31
-8.25
-4.29
-0.84
1.92
3.98
5.35
6.02
5.94
5.11
3.61
1.67
-0.44
-2.42
-4.06
-5.21
-5.87
-6.08
-5.93
-5.50
-4.86
-4.04
-3.07
-2.08
-1.25
-0.87
-1.19
-2.31
-4.18
-6.61
-9.38
-12.30
-15.22
-17.92
-20.03
-21.12
-20.77
-18.76
-15.20
-10.51
-5.28
-0.09
4.52
8.15
10.51
11.42
10.87
9.08
6.49
3.63
1.03
-0.93
-2.03
-2.27
-1.75
-0.73
0.51
1.64
2.43
2.78
2.71
2.40
1.97
1.47
0.80
-0.22
-1.74
-3.81
-6.35
-9.07
-11.55
-13.22
-13.53
-12.07
-8.72
-3.78
2.12
8.24
13.89
18.60
22.15
24.47
25.58
25.58
24.67
23.21
21.61
20.23
19.28
18.83
18.84
19.29
20.23
21.68
23.61
25.88
28.24
30.49
32.51
34.32
35.99
37.57
39.08
40.54
41.99
43.62
45.73
48.70
52.89
58.56
65.71
74.13
83.41
93.00
102.17
109.95
115.17
116.53
112.99
104.11
90.39
73.27
54.84
37.22
22.07
10.22
1.66
-4.16
-7.99
-10.47
-12.02
-13.02
-13.94
-15.45
-18.22
-22.63
-28.59
-35.49
-42.68
-49.80
-56.99
-64.66
-72.90
-81.13
-88.07
-92.30
-93.00
-90.34
-85.37
-79.33
-73.07
-66.85
-60.62
-54.59
-49.51
-46.55
-46.70
-50.26
-56.73
-65.03
-74.00
-82.72
-90.51
-96.79
-100.96
-102.54
-101.60
-98.88
-95.80
-93.84
-94.01
-96.42
-100.33
-104.60
-108.17
-110.35
-110.79
-109.13
-104.87
-97.44
-86.53
-72.46
-56.24
-39.35
-23.30
-9.12
2.78
12.55
20.56
27.09
32.17
35.61
37.25
37.11
35.49
32.98
30.34
28.42
27.91
29.17
32.16
36.40
41.21
45.99
50.42
54.45
58.15
61.43
63.89
64.92
63.92
60.60
55.11
48.09
40.41
33.07
26.90
22.63
20.72
21.30
24.17
28.72
34.05
39.12
43.00
45.04
45.04
43.20
40.02
36.10
31.95
27.92
24.19
20.85
18.03
15.80
14.23
13.25
12.63
12.06
11.16
9.70
7.63
5.10
2.40
-0.17
-2.41
-4.28
-5.93
-7.61
-9.62
-12.14
-15.19
-18.49
-21.46
-23.37
-23.48
-21.31
-16.84
-10.51
-3.12
4.36
11.05
16.28
19.66
21.06
20.65
18.80
16.04
12.96
10.06
7.68
5.96
4.89
4.36
4.21
4.30
4.44
4.46
4.24
3.72
2.92
1.92
0.75
-0.63
-2.30
-4.30
-6.62
-9.09
-11.46
-13.48
-15.04
-16.26
-17.46
-19.07
-21.36
-24.27
-27.31
-29.63
-30.32
-28.66
-24.43
-17.97
-10.13
-1.96
5.51
11.55
15.80
18.24
19.06
18.55
17.00
14.74
12.17
9.77
8.02
7.23
7.48
8.56
10.05
11.53
12.68
13.40
13.65
13.47
12.88
11.88
10.52
8.94
7.31
5.75
4.27
2.80
1.19
-0.67
-2.78
-5.03
-7.26
-9.29
-11.05
-12.58
-14.01
-15.59
-17.51
-19.89
-22.63
-25.34
-27.41
-28.13
-26.90
-23.40
-17.76
-10.55
-2.61
5.11
11.79
16.91
20.25
21.85
21.89
20.61
18.31
15.41
12.40
9.87
8.29
7.85
8.39
9.43
10.36
10.78
10.55
9.86
8.99
8.17
7.45
6.66
5.58
4.06
2.07
-0.30
-2.87
-5.46
-7.90
-10.14
-12.18
-14.10
-16.06
-18.19
-20.56
-23.08
-25.39
-26.92
-26.99
-24.99
-20.62
-14.03
-5.80
3.14
11.77
19.21
24.90
28.63
30.50
30.79
29.84
28.08
25.91
23.73
21.92
20.78
20.45
20.84
21.68
22.59
23.24
23.41
23.07
22.32
21.31
20.10
18.68
16.95
14.85
12.42
9.79
7.16
4.72
2.57
0.67
-1.11
-2.97
-5.01
-7.24
-9.57
-11.82
-13.82
-15.50
-16.91
-18.27
-19.95
-22.27
-25.41
-29.20
-33.03
-36.00
-37.06
-35.42
-30.83
-23.66
-14.81
-5.44
3.34
10.71
16.23
19.75
21.38
21.34
19.99
17.77
15.21
12.79
10.91
9.74
9.28
9.41
9.95
10.77
11.69
12.54
13.09
13.15
12.62
11.61
10.35
9.07
7.87
6.68
5.31
3.56
1.42
-0.95
-3.32
-5.47
-7.32
-8.96
-10.58
-12.43
-14.71
-17.52
-20.73
-24.01
-26.78
-28.33
-27.96
-25.30
-20.35
-13.63
-5.98
1.59
8.17
13.16
16.36
17.86
17.98
17.10
15.57
13.65
11.59
9.63
8.06
7.09
6.83
7.27
8.24
9.47
10.67
11.57
11.99
11.88
11.24
10.18
8.84
7.30
5.61
3.74
1.68
-0.60
-3.04
-5.47
-7.69
-9.53
-10.96
-12.08
-13.07
-14.18
-15.62
-17.50
-19.88
-22.70
-25.76
-28.68
-30.84
-31.48
-29.94
-25.89
-19.53
-11.60
-3.23
4.46
10.63
14.86
17.15
17.70
16.80
14.77
11.99
8.99
6.35
4.62
4.10
4.69
5.99
7.42
8.51
9.05
9.13
8.99
8.83
8.65
8.26
7.36
5.70
3.25
0.20
-3.09
-6.23
-8.92
-11.08
-12.79
-14.25
-15.71
-17.41
-19.46
-21.83
-24.24
-26.19
-27.01
-26.08
-23.02
-17.86
-11.07
-3.46
4.03
10.58
15.60
18.78
20.12
19.78
18.10
15.48
12.38
9.26
6.55
4.56
3.45
3.23
3.72
4.63
5.66
6.52
7.06
7.24
7.10
6.71
6.04
5.00
3.50
1.47
-0.99
-3.65
-6.25
-8.57
-10.52
-12.16
-13.68
-15.31
-17.25
-19.64
-22.49
-25.59
-28.56
-30.75
-31.48
-30.11
-26.36
-20.38
-12.75
-4.40
3.70
10.70
16.04
19.52
21.14
21.11
19.70
17.28
14.27
11.18
8.52
6.71
5.91
6.03
6.71
7.53
8.13
8.37
8.30
8.07
7.82
7.55
7.07
6.13
4.53
2.24
-0.61
-3.68
-6.60
-9.07
-11.04
-12.63
-14.16
-15.98
-18.29
-21.10
-24.11
-26.78
-28.44
-28.39
-26.13
-21.52
-14.86
-6.88
1.40
8.97
15.02
19.10
21.21
21.59
20.61
18.72
16.31
13.76
11.43
9.64
8.64
8.44
8.90
9.70
10.52
11.13
11.45
11.52
11.40
11.06
10.41
9.24
7.40
4.89
1.90
-1.23
-4.10
-6.42
-8.10
-9.27
-10.26
-11.43
-13.08
-15.34
-18.13
-21.15
-23.86
-25.58
-25.60
-23.41
-18.87
-12.34
-4.60
3.32
10.46
16.11
19.92
21.81
21.92
20.51
17.94
14.67
11.23
8.15
5.84
4.50
4.09
4.39
5.12
6.00
6.82
7.50
7.94
8.09
7.80
6.92
5.32
3.02
0.20
-2.78
-5.52
-7.74
-9.40
-10.68
-11.93
-13.48
-15.48
-17.87
-20.33
-22.39
-23.55
-23.34
-21.45
-17.75
-12.44
-5.96
1.03
7.82
13.77
18.41
21.44
22.77
22.43
20.69
17.92
14.66
11.47
8.82
7.02
6.13
6.03
6.48
7.20
7.99
8.66
9.07
9.08
8.54
7.36
5.50
3.08
0.35
-2.35
-4.71
-6.61
-8.15
-9.64
-11.48
-13.96
-17.21
-21.05
-25.01
-28.38
-30.28
-29.93
-26.84
-21.06
-13.23
-4.43
4.14
11.46
16.93
20.35
21.84
21.61
19.97
17.28
13.97
10.63
7.84
6.01
5.31
5.55
6.36
7.33
8.14
8.65
8.87
8.87
8.65
8.11
7.06
5.32
2.88
-0.12
-3.32
-6.36
-8.96
-11.01
-12.65
-14.18
-15.98
-18.33
-21.34
-24.78
-28.07
-30.34
-30.64
-28.28
-23.13
-15.72
-7.13
1.35
8.59
13.93
17.23
18.72
18.75
17.70
15.92
13.76
11.60
9.81
8.65
8.24
8.50
9.22
10.17
11.10
11.80
12.13
11.95
11.23
9.92
8.03
5.56
2.61
-0.68
-4.09
-7.30
-10.05
-12.21
-13.89
-15.43
-17.31
-19.87
-23.06
-26.37
-28.86
-29.46
-27.36
-22.39
-15.08
-6.50
2.07
9.52
15.18
18.89
20.77
21.13
20.29
18.58
16.37
14.05
12.05
10.61
9.83
9.54
9.49
9.46
9.38
9.31
9.36
9.55
9.72
9.54
8.68
6.97
4.51
1.66
-1.11
-3.38
-4.97
-5.98
-6.76
-7.79
-9.48
-12.06
-15.42
-19.12
-22.40
-24.34
-24.15
-21.43
-16.28
-9.35
-1.64
5.81
12.13
16.87
19.88
21.24
21.12
19.75
17.40
14.52
11.69
9.46
8.21
8.03
8.72
9.89
11.19
12.38
13.39
14.16
14.61
14.61
14.00
12.71
10.77
8.34
5.60
2.80
0.14
-2.18
-4.06
-5.49
-6.61
-7.62
-8.78
-10.32
-12.35
-14.85
-17.58
-20.07
-21.70
-21.80
-19.93
-15.96
-10.25
-3.54
3.30
9.41
14.25
17.56
19.35
19.78
19.06
17.41
15.15
12.61
10.23
8.41
7.44
7.46
8.33
9.74
11.25
12.48
13.18
13.33
13.04
12.49
11.79
10.92
9.75
8.15
6.09
3.74
1.36
-0.75
-2.40
-3.60
-4.56
-5.57
-6.97
-8.93
-11.44
-14.31
-17.17
-19.57
-20.98
-20.93
-19.11
-15.46
-10.26
-4.11
2.27
8.11
12.83
16.09
17.84
18.17
17.30
15.51
13.14
10.61
8.35
6.76
6.09
6.31
7.21
8.39
9.50
10.24
10.50
10.31
9.77
8.98
8.02
6.88
5.57
4.08
2.44
0.74
-0.92
-2.40
-3.66
-4.65
-5.43
-6.10
-6.84
-7.85
-9.34
-11.47
-14.28
-17.53
-20.72
-23.16
-24.07
-22.90
-19.51
-14.26
-7.88
-1.28
4.73
9.59
13.05
15.05
15.64
14.93
13.16
10.74
8.21
6.12
4.86
4.58
5.13
6.24
7.61
9.00
10.24
11.19
11.69
11.64
11.02
9.92
8.51
6.91
5.12
3.06
0.66
-2.04
-4.83
-7.41
-9.51
-11.01
-12.04
-12.90
-13.93
-15.44
-17.55
-20.13
-22.84
-25.13
-26.34
-25.90
-23.38
-18.76
-12.42
-5.18
1.99
8.16
12.69
15.40
16.41
16.07
14.79
12.91
10.75
8.65
6.96
5.98
5.85
6.50
7.62
8.80
9.64
9.93
9.70
9.10
8.34
7.55
6.70
5.68
4.29
2.41
0.10
-2.44
-4.90
-6.99
-8.56
-9.64
-10.39
-11.04
-11.79
-12.73
-13.94
-15.46
-17.27
-19.29
-21.22
-22.54
-22.65
-20.98
-17.35
-11.98
-5.55
1.03
6.91
11.47
14.46
15.91
16.02
15.07
13.31
11.03
8.58
6.30
4.55
3.54
3.30
3.66
4.36
5.13
5.77
6.22
6.50
6.63
6.61
6.39
5.86
4.90
3.44
1.53
-0.67
-2.91
-4.90
-6.48
-7.62
-8.46
-9.25
-10.23
-11.52
-13.17
-15.14
-17.27
-19.32
-20.90
-21.47
-20.54
-17.78
-13.25
-7.44
-1.16
4.72
9.49
12.78
14.52
14.92
14.30
12.98
11.25
9.35
7.51
5.93
4.77
4.17
4.21
4.84
5.90
7.11
8.14
8.73
8.75
8.24
7.37
6.32
5.20
3.99
2.59
0.91
-1.03
-3.10
-5.13
-6.94
-8.44
-9.67
-10.69
-11.65
-12.70
-14.01
-15.65
-17.53
-19.37
-20.65
-20.75
-19.16
-15.70
-10.59
-4.45
1.87
7.53
11.93
14.77
16.04
15.93
14.74
12.76
10.28
7.62
5.09
3.03
1.68
1.19
1.53
2.45
3.65
4.75
5.52
5.83
5.67
5.14
4.31
3.23
1.87
0.20
-1.82
-4.12
-6.55
-8.81
-10.61
-11.77
-12.28
-12.43
-12.67
-13.43
-14.93
-17.00
-19.05
-20.26
-19.86
-17.42
-13.06
-7.34
-1.12
4.71
9.51
12.88
14.79
15.33
14.70
13.15
10.95
8.42
5.97
3.97
2.72
2.32
2.67
3.52
4.49
5.27
5.68
5.69
5.37
4.82
4.12
3.17
1.87
0.14
-2.02
-4.40
-6.69
-8.61
-9.98
-10.83
-11.41
-12.02
-12.99
-14.47
-16.44
-18.66
-20.70
-22.04
-22.16
-20.68
-17.51
-12.90
-7.37
-1.60
3.74
8.16
11.36
13.23
13.81
13.23
11.71
9.58
7.21
5.01
3.30
2.28
1.98
2.28
3.00
3.89
4.73
5.35
5.61
5.49
4.96
4.01
2.64
0.85
-1.33
-3.79
-6.28
-8.50
-10.16
-11.19
-11.71
-12.11
-12.80
-14.13
-16.19
-18.77
-21.42
-23.49
-24.29
-23.31
-20.27
-15.35
-9.11
-2.38
3.95
9.16
12.81
14.81
15.30
14.54
12.81
10.44
7.78
5.24
3.24
2.10
1.94
2.65
3.88
5.19
6.22
6.84
7.10
7.20
7.24
7.18
6.76
5.73
3.90
1.36
-1.53
-4.34
-6.70
-8.48
-9.83
-11.04
-12.47
-14.33
-16.67
-19.27
-21.69
-23.32
-23.51
-21.81
-18.05
-12.48
-5.68
1.57
8.46
14.30
18.61
21.13
21.79
20.79
18.48
15.39
12.05
8.97
6.45
4.68
3.69
3.42
3.70
4.29
4.95
5.47
5.80
5.99
6.11
6.10
5.79
4.88
3.20
0.77
-2.08
-4.93
-7.38
-9.30
-10.79
-12.11
-13.57
-15.37
-17.58
-20.12
-22.72
-24.94
-26.18
-25.80
-23.31
-18.63
-12.18
-4.81
2.48
8.80
13.66
16.93
18.76
19.34
18.80
17.28
15.00
12.36
9.89
8.12
7.39
7.72
8.83
10.27
11.55
12.31
12.40
11.86
10.81
9.39
7.68
5.72
3.55
1.21
-1.18
-3.47
-5.54
-7.31
-8.81
-10.13
-11.45
-12.95
-14.81
-17.13
-19.86
-22.74
-25.31
-26.90
-26.86
-24.73
-20.43
-14.30
-7.06
0.38
7.16
12.60
16.32
18.22
18.45
17.28
15.08
12.30
9.40
6.88
5.12
4.38
4.66
5.78
7.37
9.09
10.67
11.95
12.86
13.34
13.30
12.61
11.23
9.24
6.82
4.27
1.84
-0.33
-2.24
-3.95
-5.58
-7.24
-9.02
-11.03
-13.26
-15.52
-17.39
-18.27
-17.50
-14.65
-9.72
-3.20
4.01
10.92
16.68
20.83
23.26
24.06
23.45
21.63
18.86
15.48
11.95
8.78
6.44
5.15
4.87
5.31
6.08
6.80
7.24
7.33
7.05
6.42
5.41
3.94
2.01
-0.28
-2.71
-5.01
-7.01
-8.68
-10.17
-11.70
-13.48
-15.61
-18.05
-20.70
-23.29
-25.42
-26.54
-25.99
-23.27
-18.23
-11.27
-3.26
4.68
11.49
16.51
19.43
20.34
19.49
17.24
14.00
10.28
6.67
3.70
1.73
0.90
1.11
2.07
3.50
5.11
6.64
7.87
8.54
8.48
7.57
5.90
3.62
1.06
-1.54
-3.94
-6.10
-8.07
-10.01
-12.10
-14.51
-17.24
-20.13
-22.84
-24.85
-25.57
-24.41
-21.09
-15.67
-8.69
-1.06
6.14
11.95
15.78
17.50
17.35
15.80
13.35
10.43
7.40
4.57
2.20
0.53
-0.32
-0.35
0.28
1.32
2.43
3.26
3.52
3.07
1.97
0.36
-1.55
-3.63
-5.85
-8.25
-10.89
-13.74
-16.73
-19.76
-22.72
-25.44
-27.57
-28.62
-27.94
-25.03
-19.73
-12.45
-4.07
4.25
11.45
16.78
19.99
21.21
20.83
19.28
17.00
14.37
11.80
9.66
8.25
7.77
8.19
9.32
10.85
12.42
13.72
14.53
14.77
14.47
13.70
12.57
11.12
9.38
7.33
4.95
2.28
-0.60
-3.56
-6.54
-9.44
-12.12
-14.31
-15.62
-15.60
-13.87
-10.35
-5.25
0.86
7.26
13.18
18.02
21.38
23.13
23.34
22.26
20.25
17.71
15.05
12.61
10.60
9.21
8.53
8.56
9.21
10.22
11.25
11.91
11.91
11.13
9.67
7.78
5.76
3.81
1.96
0.12
-1.86
-4.13
-6.71
-9.54
-12.47
-15.29
-17.67
-19.17
-19.28
-17.58
-13.91
-8.54
-2.12
4.41
10.15
14.49
17.21
18.44
18.44
17.53
15.96
13.94
11.74
9.67
8.06
7.12
6.89
7.18
7.67
8.01
7.88
7.14
5.83
4.12
2.24
0.41
-1.22
-2.58
-3.74
-4.79
-5.93
-7.38
-9.38
-12.08
-15.31
-18.63
-21.26
-22.30
-21.03
-17.16
-11.02
-3.47
4.34
11.30
16.66
20.13
21.84
22.10
21.24
19.47
16.97
13.95
10.79
8.05
6.25
5.73
6.42
7.90
9.60
10.98
11.73
11.74
11.13
10.06
8.72
7.27
5.84
4.50
3.23
1.86
0.02
-2.71
-6.69
-11.94
-18.00
-23.92
-28.47
-30.56
-29.58
-25.71
-19.80
-13.06
-6.65
-1.37
2.46
4.91
6.18
6.56
6.28
5.62
4.86
4.26
4.05
4.33
5.11
6.26
7.62
8.94
9.95
10.44
10.23
9.30
7.76
5.80
3.61
1.33
-1.02
-3.48
-6.14
-9.07
-12.25
-15.57
-18.75
-21.40
-22.97
-22.99
-21.13
-17.34
-11.94
-5.53
1.09
7.16
12.07
15.46
17.27
17.60
16.70
14.83
12.28
9.35
6.35
3.63
1.56
0.42
0.30
1.01
2.15
3.23
3.87
3.90
3.34
2.40
1.20
-0.15
-1.67
-3.42
-5.41
-7.68
-10.28
-13.26
-16.60
-20.11
-23.34
-25.62
-26.27
-24.80
-21.14
-15.66
-9.04
-2.08
4.44
9.96
14.10
16.71
17.78
17.46
16.08
14.00
11.67
9.47
7.72
6.58
6.11
6.23
6.76
7.43
7.93
8.00
7.49
6.46
5.08
3.60
2.21
0.95
-0.27
-1.64
-3.28
-5.25
-7.53
-10.11
-12.95
-15.97
-18.96
-21.42
-22.71
-22.17
-19.40
-14.48
-8.00
-0.86
5.94
11.61
15.68
18.02
18.70
17.98
16.16
13.62
10.78
8.05
5.78
4.23
3.44
3.36
3.81
4.58
5.43
6.18
6.62
6.58
5.95
4.72
3.01
1.04
-0.95
-2.76
-4.36
-5.87
-7.54
-9.61
-12.24
-15.32
-18.50
-21.23
-22.86
-22.86
-20.91
-17.04
-11.65
-5.42
0.90
6.62
11.23
14.46
16.17
16.41
15.29
13.01
9.96
6.60
3.45
1.00
-0.47
-0.91
-0.46
0.56
1.81
2.95
3.75
4.06
3.83
3.11
2.00
0.59
-1.05
-2.93
-5.06
-7.47
-10.18
-13.13
-16.21
-19.14
-21.51
-22.79
-22.47
-20.27
-16.21
-10.71
-4.48
1.70
7.13
11.37
14.20
15.55
15.46
14.07
11.58
8.43
5.14
2.23
0.09
-1.16
-1.65
-1.68
-1.51
-1.32
-1.13
-0.94
-0.80
-0.83
-1.20
-2.03
-3.35
-5.07
-7.13
-9.46
-12.10
-15.11
-18.41
-21.71
-24.40
-25.75
-25.11
-22.14
-17.03
-10.40
-3.18
3.75
9.72
14.36
17.56
19.31
19.61
18.45
15.92
12.38
8.34
4.48
1.45
-0.37
-0.89
-0.34
0.83
2.10
3.05
3.42
3.08
2.08
0.53
-1.40
-3.56
-5.84
-8.18
-10.66
-13.38
-16.49
-19.98
-23.60
-26.83
-28.88
-28.99
-26.68
-21.96
-15.40
-7.93
-0.57
5.88
10.95
14.51
16.54
17.11
16.27
14.20
11.25
8.00
5.05
2.95
1.91
1.84
2.44
3.30
4.09
4.62
4.84
4.76
4.35
3.56
2.30
0.54
-1.69
-4.37
-7.42
-10.76
-14.35
-18.08
-21.70
-24.79
-26.74
-26.91
-24.77
-20.18
-13.49
-5.55
2.55
9.78
15.44
19.30
21.46
22.17
21.66
20.03
17.44
14.20
10.84
8.02
6.27
5.78
6.35
7.46
8.53
9.12
9.06
8.43
7.41
6.18
4.78
3.22
1.42
-0.65
-3.03
-5.77
-8.90
-12.40
-16.11
-19.67
-22.55
-24.11
-23.80
-21.28
-16.57
-10.13
-2.70
4.78
11.44
16.60
19.88
21.20
20.79
19.06
16.52
13.68
10.98
8.78
7.28
6.63
6.77
7.59
8.80
10.04
10.94
11.21
10.72
9.53
7.83
5.86
3.77
1.61
-0.63
-2.97
-5.42
-7.95
-10.57
-13.31
-16.12
-18.77
-20.76
-21.41
-20.10
-16.48
-10.75
-3.63
3.87
10.70
16.11
19.74
21.56
21.74
20.51
18.21
15.19
11.94
8.95
6.73
5.54
5.45
6.27
7.65
9.18
10.49
11.36
11.66
11.39
10.58
9.31
7.70
5.81
3.76
1.63
-0.55
-2.80
-5.23
-7.98
-11.12
-14.55
-17.91
-20.59
-21.82
-20.97
-17.75
-12.39
-5.63
1.53
8.05
13.20
16.65
18.45
18.85
18.15
16.61
14.39
11.74
8.97
6.50
4.74
3.93
4.07
4.94
6.17
7.40
8.37
8.90
8.88
8.22
6.89
4.95
2.58
0.04
-2.45
-4.78
-7.01
-9.37
-12.06
-15.19
-18.58
-21.76
-24.00
-24.56
-22.92
-18.98
-13.14
-6.23
0.80
7.08
12.06
15.49
17.37
17.84
17.07
15.25
12.68
9.74
6.87
4.50
2.97
2.42
2.83
3.96
5.45
6.87
7.82
8.04
7.45
6.14
4.35
2.36
0.40
-1.45
-3.25
-5.17
-7.43
-10.21
-13.53
-17.22
-20.77
-23.52
-24.70
-23.76
-20.49
-15.17
-8.49
-1.37
5.28
10.74
14.59
16.70
17.18
16.26
14.29
11.66
8.77
5.99
3.62
1.88
0.89
0.64
0.99
1.71
2.52
3.16
3.45
3.30
2.69
1.67
0.31
-1.29
-3.06
-4.98
-7.06
-9.36
-11.99
-15.00
-18.29
-21.53
-24.16
-25.47
-24.85
-21.96
-16.95
-10.44
-3.34
3.40
9.03
13.13
15.60
16.51
16.04
14.40
11.89
8.92
5.98
3.56
1.97
1.31
1.46
2.17
3.11
4.04
4.75
5.11
5.03
4.48
3.49
2.15
0.61
-1.04
-2.72
-4.46
-6.33
-8.43
-10.85
-13.61
-16.58
-19.48
-21.85
-23.09
-22.63
-20.04
-15.31
-8.88
-1.61
5.42
11.21
15.15
17.13
17.44
16.56
14.95
12.89
10.56
8.15
5.95
4.38
3.81
4.38
5.88
7.79
9.50
10.47
10.45
9.46
7.73
5.58
3.31
1.08
-1.04
-3.08
-5.07
-7.06
-9.06
-11.12
-13.27
-15.53
-17.76
-19.60
-20.51
-19.86
-17.18
-12.39
-5.94
1.30
8.28
14.10
18.19
20.44
21.03
20.31
18.62
16.25
13.51
10.71
8.26
6.45
5.50
5.36
5.77
6.35
6.79
6.88
6.60
6.02
5.24
4.31
3.19
1.79
0.04
-2.08
-4.50
-7.11
-9.79
-12.51
-15.34
-18.31
-21.34
-24.07
-25.95
-26.37
-24.84
-21.20
-15.74
-9.08
-2.04
4.54
10.01
13.97
16.31
17.15
16.74
15.42
13.53
11.37
9.25
7.44
6.18
5.62
5.76
6.43
7.37
8.25
8.82
8.92
8.50
7.61
6.36
4.83
3.11
1.24
-0.73
-2.82
-5.07
-7.54
-10.27
-13.24
-16.35
-19.38
-21.98
-23.69
-24.04
-22.64
-19.30
-14.19
-7.79
-0.86
5.75
11.30
15.29
17.54
18.11
17.27
15.38
12.88
10.20
7.72
5.73
4.38
3.68
3.55
3.86
4.44
5.16
5.87
6.40
6.61
6.37
5.63
4.37
2.63
0.51
-1.86
-4.32
-6.70
-8.93
-11.05
-13.25
-15.74
-18.63
-21.70
-24.41
-25.97
-25.64
-22.98
-18.09
-11.55
-4.28
2.76
8.84
13.53
16.65
18.23
18.38
17.30
15.36
13.00
10.67
8.77
7.48
6.82
6.69
6.92
7.36
7.89
8.39
8.73
8.81
8.51
7.74
6.43
4.55
2.13
-0.66
-3.57
-6.32
-8.70
-10.67
-12.36
-14.03
-15.95
-18.31
-21.07
-23.95
-26.39
-27.64
-26.98
-23.94
-18.56
-11.40
-3.45
4.20
10.66
15.45
18.48
19.88
19.89
18.76
16.73
14.14
11.46
9.12
7.47
6.63
6.50
6.85
7.41
7.99
8.47
8.77
8.80
8.47
7.66
6.30
4.37
1.99
-0.70
-3.42
-5.90
-7.96
-9.55
-10.78
-11.94
-13.32
-15.20
-17.64
-20.44
-23.17
-25.23
-25.96
-24.85
-21.66
-16.52
-9.93
-2.64
4.55
10.89
15.86
19.17
20.76
20.72
19.25
16.70
13.56
10.42
7.89
6.41
6.12
6.81
8.00
9.19
10.04
10.47
10.62
10.65
10.61
10.39
9.75
8.52
6.66
4.34
1.78
-0.77
-3.13
-5.21
-6.99
-8.50
-9.83
-11.14
-12.65
-14.59
-17.04
-19.86
-22.61
-24.56
-24.88
-22.91
-18.41
-11.76
-3.85
4.15
11.16
16.47
19.87
21.52
21.71
20.72
18.82
16.30
13.58
11.20
9.62
9.10
9.57
10.66
11.95
13.16
14.22
15.27
16.44
17.72
18.91
19.72
19.92
19.40
18.27
16.78
15.20
13.80
12.83
12.49
12.80
13.52
14.02
13.51
11.43
7.86
3.86
1.25
2.07
7.85
18.96
34.46
52.37
70.20
85.54
96.44
101.56
100.25
92.62
79.62
62.97
44.95
27.94
13.97
4.24
-0.96
-2.11
-0.03
4.65
11.85
22.03
35.68
52.54
70.76
86.95
96.84
96.80
85.22
63.15
33.96
1.96
-28.87
-55.75
-77.19
-92.53
-101.68
-105.09
-104.02
-100.45
-96.60
-93.98
-92.72
-91.46
-88.23
-81.57
-71.51
-59.78
-49.10
-42.20
-40.76
-45.01
-53.87
-65.53
-78.02
-89.62
-99.03
-105.36
-108.13
-107.47
-104.17
-99.65
-95.61
-93.52
-94.19
-97.52
-102.66
-108.37
-113.45
-117.03
-118.62
-118.10
-115.48
-110.94
-104.80
-97.60
-90.15
-83.34
-77.79
-73.57
-70.01
-65.73
-59.02
-48.29
-32.63
-12.10
12.21
38.41
64.37
88.22
108.90
126.29
141.04
154.13
166.21
177.22
186.29
192.06
193.32
189.53
181.10
169.34
156.00
142.71
130.41
118.99
107.44
94.29
78.38
59.29
37.59
14.57
-8.25
-29.46
-47.92
-62.58
-72.45
-76.86
-75.84
-70.56
-63.20
-56.40
-52.24
-51.39
-52.93
-54.84
-54.97
-52.03
-45.91
-37.59
-28.38
-19.27
-10.68
-2.58
5.05
11.84
17.03
19.71
19.34
15.99
10.41
3.73
-2.96
-8.89
-13.79
-17.74
-20.96
-23.63
-25.82
-27.51
-28.72
-29.55
-30.20
-30.90
-31.79
-32.90
-34.03
-34.96
-35.52
-35.70
-35.76
-36.13
-37.31
-39.60
-42.96
-46.86
-50.26
-51.93
-50.78
-46.35
-38.98
-29.81
-20.35
-11.97
-5.48
-0.94
2.17
4.55
6.71
8.84
10.87
12.68
14.29
15.92
17.92
20.52
23.77
27.44
31.12
34.37
36.80
38.18
38.47
37.78
36.30
34.31
32.09
29.90
27.93
26.28
24.88
23.55
21.98
19.86
16.96
13.22
8.81
4.13
-0.26
-3.64
-5.35
-4.94
-2.30
2.24
8.02
14.19
20.01
24.92
28.68
31.20
32.48
32.53
31.43
29.36
26.68
23.87
21.41
19.62
18.59
18.22
18.23
18.35
18.35
18.13
17.64
16.89
15.86
14.55
12.97
11.19
9.30
7.41
5.55
3.65
1.59
-0.84
-3.73
-7.07
-10.63
-13.95
-16.46
-17.55
-16.78
-14.05
-9.62
-4.12
1.67
7.04
11.52
14.89
17.16
18.42
18.84
18.62
18.01
17.30
16.75
16.49
16.50
16.67
16.86
16.95
16.86
16.52
15.81
14.61
12.88
10.71
8.32
5.91
3.64
1.52
-0.54
-2.64
-4.83
-7.11
-9.48
-11.88
-14.25
-16.36
-17.85
-18.27
-17.17
-14.34
-9.88
-4.24
1.91
7.82
12.91
16.84
19.59
21.29
22.16
22.35
21.94
21.00
19.73
18.41
17.40
16.96
17.17
17.85
18.70
19.39
19.70
19.57
19.07
18.27
17.16
15.66
13.64
11.05
7.93
4.45
0.84
-2.77
-6.40
-10.20
-14.37
-18.97
-23.76
-28.18
-31.54
-33.27
-33.11
-31.25
-28.23
-24.74
-21.35
-18.47
-16.25
-14.76
-14.01
-14.00
-14.66
-15.81
-17.16
-18.30
-18.94
-18.87
-18.09
-16.72
-14.92
-12.81
-10.50
-8.11
-5.81
-3.84
-2.46
-1.84
-1.96
-2.68
-3.71
-4.82
-5.92
-7.01
-8.21
-9.61
-11.27
-13.12
-15.05
-16.83
-18.17
-18.68
-17.95
-15.61
-11.47
-5.63
1.42
8.92
16.00
21.97
26.45
29.44
31.19
32.09
32.46
32.45
32.11
31.41
30.35
28.97
27.43
25.88
24.53
23.49
22.78
22.27
21.72
20.89
19.65
18.07
16.36
14.72
13.26
11.86
10.28
8.27
5.71
2.65
-0.79
-4.46
-8.25
-12.05
-15.61
-18.46
-20.03
-19.75
-17.35
-12.98
-7.24
-0.95
5.02
10.04
13.84
16.44
18.02
18.85
19.10
18.94
18.48
17.89
17.42
17.31
17.69
18.55
19.67
20.74
21.50
21.79
21.59
21.02
20.15
19.03
17.72
16.26
14.70
13.11
11.43
9.51
7.06
3.79
-0.45
-5.54
-11.05
-16.25
-20.34
-22.56
-22.43
-19.90
-15.41
-9.78
-4.02
0.95
4.52
6.50
7.02
6.43
5.11
3.42
1.57
-0.23
-1.86
-3.22
-4.21
-4.77
-4.87
-4.54
-3.90
-3.17
-2.63
-2.58
-3.15
-4.33
-5.96
-7.80
-9.65
-11.37
-12.91
-14.25
-15.50
-16.84
-18.55
-20.86
-23.79
-27.01
-29.83
-31.41
-31.05
-28.48
-23.91
-17.98
-11.48
-5.10
0.61
5.34
8.85
10.99
11.69
11.02
9.22
6.70
3.93
1.35
-0.73
-2.16
-2.95
-3.21
-3.14
-3.03
-3.14
-3.69
-4.82
-6.45
-8.39
-10.36
-12.03
-13.25
-14.04
-14.62
-15.34
-16.50
-18.22
-20.39
-22.60
-24.27
-24.79
-23.68
-20.76
-16.25
-10.70
-4.81
0.74
5.43
8.96
11.25
12.27
12.00
10.49
7.91
4.60
1.07
-2.15
-4.58
-6.00
-6.45
-6.13
-5.40
-4.55
-3.80
-3.28
-3.04
-3.10
-3.48
-4.22
-5.28
-6.63
-8.21
-9.97
-11.94
-14.14
-16.53
-18.89
-20.80
-21.68
-20.97
-18.32
-13.80
-7.80
-1.08
5.52
11.27
15.66
18.41
19.47
18.92
16.92
13.76
9.89
5.89
2.33
-0.31
-1.84
-2.43
-2.44
-2.31
-2.34
-2.58
-2.92
-3.21
-3.35
-3.38
-3.44
-3.68
-4.23
-5.28
-6.95
-9.38
-12.53
-16.09
-19.46
-21.87
-22.59
-21.22
-17.76
-12.68
-6.69
-0.56
5.10
9.82
13.35
15.54
16.36
15.82
14.11
11.55
8.64
5.93
3.96
3.07
3.28
4.28
5.52
6.40
6.47
5.64
4.13
2.37
0.73
-0.61
-1.76
-3.00
-4.68
-6.99
-9.92
-13.29
-16.78
-19.98
-22.33
-23.26
-22.22
-18.93
-13.52
-6.59
0.99
8.22
14.37
19.03
22.08
23.56
23.51
21.99
19.14
15.35
11.17
7.28
4.24
2.34
1.60
1.76
2.48
3.37
4.13
4.54
4.49
4.00
3.10
1.86
0.28
-1.68
-4.07
-6.91
-10.14
-13.65
-17.21
-20.56
-23.29
-24.90
-24.86
-22.77
-18.53
-12.47
-5.25
2.21
9.07
14.65
18.61
20.91
21.67
21.16
19.61
17.29
14.48
11.52
8.87
6.92
5.96
6.00
6.77
7.82
8.65
8.93
8.50
7.45
5.98
4.30
2.57
0.88
-0.75
-2.36
-4.06
-5.97
-8.20
-10.74
-13.44
-15.91
-17.59
-17.93
-16.52
-13.33
-8.70
-3.28
2.16
6.99
10.79
13.34
14.62
14.72
13.77
11.99
9.66
7.09
4.63
2.61
1.27
0.75
1.01
1.88
2.98
3.90
4.29
3.96
2.95
1.43
-0.37
-2.29
-4.32
-6.49
-8.89
-11.55
-14.44
-17.39
-20.09
-22.07
-22.79
-21.79
-18.83
-14.02
-7.84
-1.00
5.73
11.70
16.45
19.70
21.27
21.09
19.24
16.05
12.06
7.96
4.39
1.73
0.12
-0.58
-0.60
-0.23
0.32
0.88
1.26
1.36
1.10
0.49
-0.42
-1.59
-3.03
-4.88
-7.28
-10.34
-13.97
-17.86
-21.43
-24.02
-24.97
-23.86
-20.63
-15.61
-9.41
-2.79
3.53
8.97
13.13
15.76
16.72
16.04
13.94
10.79
7.17
3.70
0.96
-0.68
-1.09
-0.44
0.87
2.33
3.46
3.97
3.76
2.96
1.78
0.40
-1.12
-2.83
-4.81
-7.15
-9.87
-12.91
-16.17
-19.41
-22.25
-24.16
-24.54
-22.91
-19.12
-13.39
-6.35
1.09
8.04
13.73
17.75
19.99
20.66
20.07
18.62
16.65
14.48
12.41
10.75
9.79
9.69
10.38
11.55
12.69
13.30
13.07
12.04
10.46
8.71
7.05
5.53
3.98
2.18
-0.06
-2.74
-5.66
-8.57
-11.11
-12.99
-13.90
-13.51
-11.50
-7.63
-1.93
5.23
13.11
20.73
27.17
31.79
34.36
35.12
34.52
33.12
31.43
29.85
28.68
28.17
28.49
29.72
31.88
34.81
38.31
42.09
45.90
49.53
52.86
55.80
58.25
60.02
60.89
60.74
59.63
57.88
55.96
54.24
52.82
51.47
49.93
48.21
46.73
46.25
47.35
50.00
53.34
55.90
56.15
53.11
46.70
37.65
27.10
16.21
5.94
-3.06
-10.34
-15.63
-18.86
-20.22
-20.24
-19.78
-19.78
-21.04
-23.99
-28.46
-33.80
-39.13
-43.68
-47.00
-49.05
-50.06
-50.25
-49.71
-48.39
-46.19
-43.09
-39.10
-34.28
-28.59
-22.04
-14.77
-7.18
0.14
6.49
11.23
13.96
14.53
13.00
9.67
4.98
-0.53
-6.29
-11.78
-16.57
-20.18
-22.18
-22.15
-19.92
-15.77
-10.52
-5.32
-1.25
1.11
1.82
1.44
0.65
-0.16
-1.00
-2.15
-3.80
-5.72
-7.38
-8.22
-8.05
-7.34
-6.96
-7.78
-10.19
-13.99
-18.61
-23.60
-28.84
-34.46
-40.45
-46.28
-51.02
-53.70
-53.95
-52.31
-50.09
-48.70
-49.04
-51.16
-54.49
-58.26
-61.91
-65.33
-68.53
-71.34
-73.09
-72.59
-68.54
-59.97
-46.71
-29.58
-10.12
9.84
28.65
45.14
58.63
68.84
75.57
78.72
78.42
75.14
69.75
63.34
56.81
50.55
44.33
37.34
28.50
16.85
1.84
-16.47
-37.49
-60.19
-83.34
-105.67
-125.96
-143.22
-156.78
-166.39
-172.12
-174.16
-172.55
-167.18
-157.84
-144.62
-128.16
-109.78
-91.07
-73.33
-56.96
-41.43
-25.60
-8.54
9.94
29.12
47.71
64.49
78.77
90.53
100.12
107.87
113.82
117.73
119.35
118.67
116.08
112.17
107.44
102.18
96.37
89.89
82.73
75.16
67.68
60.79
54.79
49.70
45.26
41.03
36.63
31.79
26.44
20.66
14.64
8.63
2.78
-2.78
-7.96
-12.64
-16.65
-19.76
-21.73
-22.45
-21.91
-20.27
-17.77
-14.71
-11.36
-8.02
-4.97
-2.45
-0.66
0.34
0.65
0.48
0.10
-0.26
-0.49
-0.56
-0.46
-0.22
0.20
0.77
1.44
2.03
2.33
2.13
1.33
-0.02
-1.76
-3.76
-5.96
-8.46
-11.34
-14.62
-18.16
-21.62
-24.63
-26.86
-28.14
-28.40
-27.73
-26.22
-24.07
-21.50
-18.77
-16.17
-13.90
-12.02
-10.49
-9.21
-8.12
-7.21
-6.58
-6.29
-6.36
-6.66
-7.01
-7.21
-7.17
-6.90
-6.51
-6.07
-5.62
-5.15
-4.64
-4.06
-3.48
-2.93
-2.47
-2.20
-2.12
-2.28
-2.71
-3.36
-4.09
-4.70
-4.94
-4.58
-3.49
-1.65
0.81
3.68
6.71
9.70
12.52
15.13
17.56
19.82
21.90
23.73
25.28
26.59
27.74
28.86
30.03
31.28
32.53
33.64
34.49
34.99
35.16
35.06
34.85
34.61
34.37
34.04
33.51
32.65
31.41
29.84
28.04
26.10
24.17
22.34
20.79
19.62
18.87
18.42
17.96
17.05
15.22
12.15
7.69
1.99
-4.54
-11.33
-17.73
-23.23
-27.54
-30.69
-32.88
-34.45
-35.75
-37.12
-38.83
-41.06
-43.78
-46.76
-49.56
-51.67
-52.72
-52.58
-51.45
-49.69
-47.72
-45.85
-44.24
-42.90
-41.70
-40.38
-38.58
-35.91
-32.07
-27.03
-21.09
-14.82
-8.91
-3.93
-0.24
2.10
3.17
3.15
2.17
0.37
-2.01
-4.57
-6.83
-8.35
-8.87
-8.39
-7.20
-5.73
-4.37
-3.37
-2.79
-2.54
-2.54
-2.70
-2.99
-3.34
-3.65
-3.79
-3.75
-3.61
-3.62
-4.08
-5.10
-6.46
-7.58
-7.62
-5.95
-2.34
2.92
9.10
15.32
20.88
25.35
28.60
30.70
31.76
31.92
31.32
30.13
28.52
26.59
24.35
21.77
18.83
15.57
12.11
8.67
5.44
2.68
0.56
-0.78
-1.31
-1.18
-0.61
0.11
0.84
1.54
2.30
3.23
4.31
5.51
6.77
8.16
9.83
11.94
14.51
17.39
20.31
22.96
25.16
26.81
27.86
28.28
28.00
26.98
25.29
23.12
20.70
18.23
15.75
13.20
10.45
7.47
4.31
1.17
-1.80
-4.45
-6.70
-8.49
-9.76
-10.46
-10.62
-10.39
-10.06
-9.91
-10.25
-11.23
-12.89
-15.06
-17.46
-19.68
-21.32
-22.03
-21.70
-20.42
-18.44
-16.06
-13.56
-11.14
-8.95
-7.18
-5.97
-5.44
-5.53
-6.03
-6.62
-7.05
-7.15
-6.96
-6.57
-6.10
-5.61
-5.06
-4.46
-3.80
-3.16
-2.69
-2.54
-2.85
-3.66
-4.91
-6.47
-8.17
-9.80
-11.25
-12.41
-13.25
-13.80
-14.17
-14.45
-14.66
-14.69
-14.33
-13.35
-11.62
-9.19
-6.24
-3.09
-0.04
2.67
4.89
6.61
7.82
8.57
8.93
8.96
8.76
8.46
8.22
8.14
8.28
8.55
8.81
8.85
8.58
8.06
7.42
6.86
6.44
6.09
5.68
5.04
4.13
3.03
1.83
0.65
-0.46
-1.49
-2.31
-2.71
-2.45
-1.36
0.53
2.95
5.49
7.75
9.46
10.53
11.02
11.03
10.60
9.72
8.37
6.57
4.38
1.93
-0.56
-2.94
-5.00
-6.59
-7.58
-7.96
-7.83
-7.43
-7.07
-6.99
-7.23
-7.59
-7.74
-7.40
-6.49
-5.22
-3.98
-3.17
-3.01
-3.44
-4.21
-4.93
-5.23
-4.91
-3.93
-2.33
-0.24
2.16
4.67
7.03
9.00
10.32
10.86
10.65
9.86
8.72
7.47
6.24
5.04
3.81
2.55
1.28
0.13
-0.78
-1.32
-1.52
-1.47
-1.39
-1.46
-1.76
-2.29
-2.91
-3.51
-4.03
-4.49
-4.99
-5.66
-6.63
-7.89
-9.39
-10.91
-12.16
-12.79
-12.50
-11.12
-8.78
-5.76
-2.54
0.43
2.81
4.48
5.52
6.05
6.15
5.82
5.00
3.70
2.07
0.41
-0.88
-1.54
-1.52
-1.01
-0.38
0.01
-0.03
-0.48
-1.18
-1.92
-2.54
-3.03
-3.48
-3.99
-4.64
-5.40
-6.24
-7.12
-8.03
-8.93
-9.74
-10.21
-9.99
-8.81
-6.54
-3.39
0.17
3.55
6.23
7.90
8.50
8.15
7.03
5.36
3.30
1.05
-1.18
-3.21
-4.85
-6.03
-6.72
-6.96
-6.83
-6.51
-6.16
-5.90
-5.77
-5.64
-5.37
-4.85
-4.12
-3.35
-2.80
-2.65
-2.92
-3.50
-4.19
-4.83
-5.30
-5.47
-5.14
-4.11
-2.20
0.60
4.04
7.68
11.04
13.79
15.76
16.99
17.55
17.49
16.78
15.38
13.39
10.95
8.29
5.60
2.98
0.50
-1.82
-3.91
-5.69
-7.14
-8.25
-9.05
-9.59
-9.92
-10.08
-10.13
-10.19
-10.37
-10.80
-11.57
-12.73
-14.32
-16.29
-18.55
-20.82
-22.66
-23.54
-23.02
-20.96
-17.53
-13.16
-8.44
-3.88
0.14
3.41
5.89
7.63
8.73
9.35
9.67
9.86
10.07
10.40
10.93
11.61
12.35
12.94
13.17
12.79
11.71
9.96
7.70
5.10
2.33
-0.48
-3.24
-5.85
-8.22
-10.33
-12.19
-13.88
-15.43
-16.78
-17.68
-17.76
-16.67
-14.27
-10.69
-6.33
-1.74
2.59
6.39
9.53
12.00
13.77
14.77
14.91
14.22
12.90
11.32
9.89
8.84
8.21
7.77
7.22
6.26
4.71
2.54
-0.12
-3.04
-5.93
-8.57
-10.82
-12.76
-14.63
-16.73
-19.31
-22.43
-26.00
-29.72
-33.27
-36.30
-38.53
-39.63
-39.32
-37.39
-33.83
-28.84
-22.86
-16.42
-10.07
-4.25
0.77
4.79
7.67
9.27
9.46
8.26
5.91
2.88
-0.21
-2.77
-4.41
-5.01
-4.74
-3.96
-3.03
-2.27
-1.88
-1.97
-2.59
-3.76
-5.47
-7.69
-10.41
-13.57
-17.10
-20.82
-24.53
-28.05
-31.33
-34.39
-37.33
-39.94
-41.66
-41.52
-38.45
-31.81
-21.79
-9.63
2.65
12.95
19.73
22.55
22.13
19.92
17.50
16.01
15.90
17.05
19.08
21.77
25.19
29.71
35.77
43.78
53.87
65.88
79.19
92.68
104.92
114.47
120.21
121.69
119.02
112.76
103.50
91.57
76.74
58.29
35.19
6.68
-27.13
-64.79
-103.44
-139.33
-168.75
-189.07
-199.33
-200.34
-194.00
-182.63
-168.28
-152.56
-136.58
-121.13
-106.71
-93.52
-81.42
-69.84
-58.03
-45.09
-30.36
-13.72
4.15
21.82
37.44
49.41
56.95
60.33
60.71
59.50
57.76
55.88
53.66
50.70
46.79
42.11
37.11
32.27
27.92
24.16
20.93
18.06
15.35
12.47
9.08
4.99
0.36
-4.14
-7.45
-8.36
-6.02
-0.25
8.43
18.91
29.93
40.41
49.61
57.13
62.81
66.59
68.50
68.67
67.42
65.29
62.91
60.83
59.39
58.55
57.98
57.28
56.10
54.35
52.14
49.69
47.15
44.47
41.40
37.68
33.11
27.81
22.14
16.59
11.62
7.47
4.07
1.10
-1.85
-5.15
-9.02
-13.48
-18.29
-23.02
-26.98
-29.34
-29.25
-26.11
-19.79
-10.79
-0.13
10.88
20.97
29.21
35.11
38.58
39.80
39.12
37.04
34.12
31.05
28.44
26.72
25.94
25.84
25.94
25.82
25.30
24.52
23.77
23.29
23.07
22.82
22.06
20.35
17.54
13.80
9.55
5.37
1.71
-1.18
-3.37
-5.22
-7.27
-9.99
-13.65
-18.08
-22.65
-26.45
-28.48
-28.02
-24.74
-18.90
-11.19
-2.56
5.99
13.58
19.53
23.47
25.27
25.14
23.54
21.10
18.49
16.30
14.90
14.37
14.59
15.28
16.15
16.95
17.56
17.90
17.92
17.56
16.72
15.32
13.35
10.93
8.19
5.35
2.60
0.04
-2.34
-4.70
-7.27
-10.28
-13.84
-17.79
-21.60
-24.49
-25.58
-24.18
-20.06
-13.46
-5.18
3.78
12.32
19.53
24.77
27.76
28.57
27.57
25.29
22.30
19.13
16.15
13.60
11.60
10.22
9.47
9.31
9.65
10.28
10.93
11.33
11.24
10.51
9.18
7.35
5.23
3.01
0.80
-1.41
-3.77
-6.48
-9.72
-13.63
-18.22
-23.40
-28.83
-33.95
-37.93
-39.87
-38.93
-34.72
-27.41
-17.81
-7.19
3.06
11.77
18.23
22.23
24.03
24.08
22.97
21.16
19.03
16.86
14.89
13.30
12.23
11.73
11.75
12.14
12.71
13.24
13.54
13.41
12.64
11.11
8.82
5.89
2.58
-0.81
-4.06
-7.09
-9.95
-12.83
-15.98
-19.62
-23.83
-28.44
-32.92
-36.39
-37.79
-36.26
-31.42
-23.57
-13.67
-3.03
7.10
15.79
22.56
27.28
30.07
31.11
30.63
28.92
26.36
23.40
20.51
18.05
16.22
15.01
14.27
13.77
13.33
12.81
12.14
11.29
10.15
8.58
6.48
3.77
0.53
-3.07
-6.77
-10.36
-13.70
-16.82
-19.89
-23.21
-26.99
-31.23
-35.59
-39.33
-41.45
-41.03
-37.48
-30.83
-21.77
-11.46
-1.20
7.84
14.90
19.67
22.19
22.69
21.61
19.40
16.57
13.62
10.97
8.91
7.62
7.14
7.44
8.39
9.75
11.20
12.38
12.96
12.75
11.73
10.00
7.78
5.25
2.54
-0.30
-3.26
-6.32
-9.52
-12.96
-16.77
-21.06
-25.69
-30.19
-33.74
-35.36
-34.25
-30.14
-23.44
-15.12
-6.35
1.75
8.41
13.25
16.16
17.26
16.79
15.08
12.57
9.73
6.99
4.70
3.03
2.06
1.76
2.03
2.67
3.41
3.98
4.15
3.80
2.87
1.38
-0.67
-3.24
-6.22
-9.49
-12.89
-16.32
-19.80
-23.48
-27.52
-31.88
-36.11
-39.38
-40.67
-39.12
-34.38
-26.76
-17.21
-6.96
2.76
10.96
17.06
20.84
22.39
22.00
20.10
17.22
13.89
10.62
7.83
5.79
4.60
4.16
4.23
4.44
4.47
4.16
3.50
2.68
1.83
1.03
0.21
-0.83
-2.27
-4.26
-6.91
-10.24
-14.30
-19.07
-24.39
-29.87
-34.89
-38.54
-39.94
-38.43
-33.81
-26.49
-17.42
-7.78
1.28
8.94
14.82
18.86
21.19
21.91
21.12
18.98
15.82
12.13
8.49
5.37
2.99
1.35
0.25
-0.51
-1.12
-1.66
-2.23
-2.92
-3.84
-5.05
-6.49
-8.08
-9.73
-11.44
-13.38
-15.80
-18.95
-22.85
-27.24
-31.48
-34.67
-35.81
-34.16
-29.39
-21.77
-12.12
-1.60
8.56
17.29
23.82
27.84
29.36
28.68
26.25
22.61
18.35
14.04
10.27
7.46
5.93
5.66
6.43
7.79
9.24
10.33
10.77
10.44
9.36
7.68
5.60
3.37
1.11
-1.17
-3.58
-6.37
-9.73
-13.67
-17.98
-22.20
-25.63
-27.50
-27.10
-24.01
-18.27
-10.48
-1.70
6.89
14.24
19.76
23.31
25.04
25.20
23.98
21.56
18.20
14.32
10.54
7.49
5.63
5.13
5.83
7.29
9.03
10.60
11.67
12.06
11.73
10.62
8.77
6.19
2.99
-0.67
-4.58
-8.59
-12.64
-16.73
-20.78
-24.55
-27.52
-29.00
-28.30
-25.09
-19.51
-12.21
-4.15
3.68
10.46
15.67
18.98
20.30
19.64
17.27
13.69
9.58
5.76
2.88
1.34
1.12
1.87
3.06
4.13
4.64
4.43
3.51
2.06
0.33
-1.54
-3.52
-5.75
-8.45
-11.82
-15.94
-20.66
-25.59
-30.01
-33.04
-33.83
-31.79
-26.87
-19.58
-10.92
-2.07
5.94
12.39
16.96
19.57
20.29
19.29
16.87
13.52
9.84
6.50
4.01
2.59
2.17
2.40
2.86
3.14
2.98
2.26
1.03
-0.56
-2.37
-4.32
-6.49
-9.13
-12.59
-17.13
-22.69
-28.76
-34.39
-38.46
-39.90
-38.13
-33.10
-25.32
-15.72
-5.37
4.65
13.43
20.32
24.94
27.30
27.61
26.26
23.75
20.54
17.10
13.91
11.39
9.81
9.18
9.21
9.45
9.43
8.90
7.82
6.31
4.46
2.28
-0.31
-3.41
-7.07
-11.30
-16.07
-21.31
-26.79
-31.97
-35.98
-37.76
-36.42
-31.64
-23.83
-14.12
-3.91
5.53
13.36
19.20
23.08
25.18
25.70
24.83
22.87
20.27
17.64
15.63
14.73
15.12
16.60
18.61
20.50
21.66
21.70
20.55
18.41
15.62
12.53
9.36
6.15
2.72
-1.17
-5.73
-11.06
-17.04
-23.25
-29.07
-33.69
-36.29
-36.16
-33.00
-26.99
-18.81
-9.55
-0.40
7.63
13.87
18.06
20.30
20.87
20.24
18.88
17.30
15.92
15.08
14.93
15.41
16.32
17.35
18.25
18.87
19.23
19.39
19.41
19.24
18.74
17.75
16.17
14.03
11.48
8.74
6.02
3.44
1.09
-1.09
-3.24
-5.60
-8.50
-12.20
-16.74
-21.75
-26.48
-29.90
-31.02
-29.17
-24.25
-16.77
-7.73
1.69
10.35
17.38
22.27
24.87
25.32
23.96
21.36
18.19
15.22
13.13
12.36
12.98
14.68
16.84
18.83
20.18
20.72
20.57
20.01
19.37
18.81
18.31
17.72
16.81
15.42
13.53
11.22
8.67
6.05
3.48
0.97
-1.55
-4.16
-6.93
-9.96
-13.30
-16.95
-20.69
-24.02
-26.25
-26.61
-24.56
-20.04
-13.52
-5.87
1.84
8.72
14.12
17.73
19.49
19.51
18.08
15.65
12.79
10.12
8.15
7.14
7.09
7.75
8.77
9.82
10.70
11.32
11.69
11.80
11.57
10.87
9.57
7.58
4.89
1.73
-1.63
-4.83
-7.62
-9.87
-11.63
-13.11
-14.55
-16.21
-18.26
-20.74
-23.48
-26.08
-27.91
-28.29
-26.62
-22.65
-16.62
-9.27
-1.59
5.38
10.84
14.40
16.04
16.02
14.76
12.65
10.10
7.42
4.93
2.90
1.53
0.92
1.03
1.64
2.49
3.31
3.95
4.35
4.51
4.43
4.03
3.19
1.81
-0.09
-2.38
-4.79
-7.04
-8.97
-10.60
-12.22
-14.25
-17.06
-20.69
-24.70
-28.19
-30.02
-29.28
-25.62
-19.46
-11.79
-3.87
3.16
8.63
12.29
14.25
14.76
14.15
12.69
10.65
8.39
6.24
4.49
3.32
2.73
2.59
2.73
3.00
3.35
3.71
4.02
4.11
3.80
2.91
1.40
-0.63
-2.99
-5.48
-7.94
-10.27
-12.45
-14.49
-16.46
-18.50
-20.71
-23.09
-25.42
-27.20
-27.75
-26.44
-22.87
-17.13
-9.80
-1.87
5.52
11.38
15.14
16.74
16.54
15.12
13.09
10.87
8.80
7.10
5.97
5.55
5.86
6.77
7.95
9.02
9.68
9.75
9.22
8.13
6.49
4.30
1.55
-1.60
-4.92
-8.12
-11.00
-13.50
-15.79
-18.12
-20.65
-23.42
-26.14
-28.23
-28.97
-27.72
-24.15
-18.49
-11.43
-3.99
2.86
8.45
12.50
15.04
16.26
16.31
15.29
13.31
10.62
7.59
4.66
2.24
0.58
-0.21
-0.20
0.39
1.29
2.16
2.74
2.86
2.42
1.41
-0.15
-2.18
-4.48
-6.87
-9.16
-11.27
-13.32
-15.56
-18.23
-21.38
-24.73
-27.65
-29.30
-28.91
-26.06
-20.83
-13.84
-6.04
1.56
8.10
13.07
16.29
17.83
17.86
16.56
14.14
10.94
7.35
3.91
1.10
-0.78
-1.66
-1.75
-1.38
-0.85
-0.36
0.00
0.16
0.04
-0.53
-1.64
-3.31
-5.39
-7.61
-9.77
-11.82
-13.91
-16.35
-19.36
-22.82
-26.25
-28.82
-29.59
-27.93
-23.68
-17.34
-9.82
-2.25
4.47
9.79
13.59
15.98
17.08
16.93
15.52
12.96
9.59
6.02
2.93
0.87
0.02
0.20
0.97
1.78
2.20
2.00
1.18
-0.14
-1.77
-3.56
-5.42
-7.33
-9.30
-11.39
-13.65
-16.14
-18.90
-21.88
-24.80
-27.15
-28.19
-27.20
-23.69
-17.75
-9.95
-1.30
7.12
14.42
20.06
23.79
25.54
25.42
23.61
20.48
16.54
12.38
8.59
5.61
3.66
2.71
2.55
2.81
3.12
3.18
2.81
2.02
0.89
-0.50
-2.14
-4.09
-6.46
-9.33
-12.66
-16.40
-20.43
-24.51
-28.27
-31.12
-32.39
-31.46
-28.02
-22.27
-14.88
-6.80
0.98
7.71
12.97
16.59
18.56
18.92
17.75
15.28
11.90
8.22
4.92
2.62
1.59
1.76
2.66
3.62
4.08
3.73
2.62
1.09
-0.50
-1.93
-3.20
-4.53
-6.20
-8.48
-11.47
-15.11
-19.11
-22.93
-25.85
-27.11
-26.11
-22.65
-16.98
-9.81
-2.08
5.29
11.62
16.53
19.85
21.58
21.75
20.49
18.06
14.90
11.58
8.69
6.69
5.77
5.81
6.47
7.28
7.81
7.78
7.13
5.93
4.32
2.45
0.41
-1.76
-4.05
-6.42
-8.91
-11.52
-14.31
-17.21
-19.95
-21.95
-22.48
-20.82
-16.64
-10.15
-2.12
6.34
14.15
20.49
24.94
27.42
28.05
27.04
24.62
21.10
16.93
12.70
8.99
6.26
4.71
4.21
4.34
4.59
4.52
3.91
2.81
1.46
0.10
-1.10
-2.19
-3.32
-4.70
-6.52
-8.86
-11.70
-14.89
-18.08
-20.74
-22.16
-21.63
-18.69
-13.36
-6.24
1.67
9.23
15.55
20.14
22.95
24.15
23.99
22.63
20.27
17.21
13.91
10.95
8.85
7.86
7.87
8.46
9.12
9.45
9.31
8.84
8.32
7.96
7.76
7.46
6.67
5.00
2.27
-1.44
-5.77
-10.22
-14.21
-17.18
-18.63
-18.15
-15.57
-11.02
-5.00
1.69
8.14
13.58
17.49
19.71
20.33
19.58
17.76
15.20
12.31
9.51
7.20
5.66
4.93
4.91
5.29
5.75
5.98
5.86
5.37
4.57
3.55
2.29
0.70
-1.33
-3.91
-7.01
-10.49
-14.05
-17.23
-19.47
-20.15
-18.80
-15.23
-9.67
-2.74
4.64
11.54
17.16
21.07
23.09
23.32
21.98
19.40
15.97
12.17
8.52
5.54
3.65
2.98
3.41
4.53
5.81
6.74
6.98
6.41
5.14
3.36
1.25
-1.06
-3.54
-6.22
-9.15
-12.34
-15.67
-18.85
-21.37
-22.67
-22.18
-19.60
-14.96
-8.75
-1.71
5.23
11.28
15.82
18.49
19.19
17.99
15.18
11.23
6.78
2.55
-0.79
-2.86
-3.62
-3.41
-2.72
-1.99
-1.46
-1.16
-0.97
-0.81
-0.71
-0.79
-1.19
-2.02
-3.34
-5.20
-7.58
-10.41
-13.46
-16.29
-18.34
-18.99
-17.82
-14.75
-10.07
-4.40
1.49
6.84
11.07
13.80
14.90
14.41
12.52
9.54
5.90
2.10
-1.34
-3.98
-5.55
-6.03
-5.63
-4.74
-3.78
-3.05
-2.68
-2.63
-2.74
-2.96
-3.32
-4.03
-5.29
-7.30
-10.08
-13.50
-17.24
-20.81
-23.57
-24.84
-24.05
-20.95
-15.72
-9.03
-1.83
4.90
10.44
14.36
16.52
16.97
15.83
13.30
9.72
5.58
1.49
-1.94
-4.21
-5.11
-4.72
-3.45
-1.87
-0.58
-0.02
-0.35
-1.44
-2.99
-4.68
-6.33
-7.94
-9.71
-11.87
-14.54
-17.70
-21.04
-24.02
-25.89
-25.90
-23.55
-18.72
-11.87
-3.90
4.11
11.16
16.62
20.18
21.90
21.91
20.46
17.79
14.22
10.19
6.26
3.00
0.84
-0.04
0.25
1.31
2.62
3.68
4.16
3.92
3.08
1.81
0.30
-1.32
-3.06
-5.03
-7.36
-10.18
-13.55
-17.30
-21.02
-24.11
-25.84
-25.61
-23.07
-18.33
-11.88
-4.59
2.60
8.88
13.66
16.69
17.96
17.65
16.06
13.60
10.72
7.96
5.78
4.55
4.39
5.15
6.50
7.97
9.17
9.83
9.83
9.22
8.10
6.60
4.81
2.83
0.66
-1.78
-4.61
-8.00
-11.98
-16.40
-20.78
-24.48
-26.73
-26.89
-24.67
-20.22
-14.05
-6.90
0.40
7.09
12.55
16.39
18.40
18.64
17.34
14.91
11.86
8.74
6.05
4.17
3.31
3.45
4.39
5.70
6.92
7.64
7.62
6.82
5.34
3.34
0.98
-1.66
-4.53
-7.59
-10.79
-14.09
-17.44
-20.73
-23.70
-25.93
-26.87
-25.99
-23.02
-18.08
-11.69
-4.63
2.29
8.40
13.28
16.66
18.40
18.47
16.97
14.18
10.66
7.06
4.03
2.02
1.13
1.10
1.53
1.97
2.14
1.98
1.56
1.03
0.50
-0.01
-0.57
-1.32
-2.40
-3.97
-6.14
-8.92
-12.12
-15.30
-17.83
-19.00
-18.24
-15.35
-10.57
-4.54
1.93
8.03
13.20
17.05
19.42
20.28
19.65
17.64
14.48
10.57
6.44
2.68
-0.16
-1.77
-2.16
-1.62
-0.66
0.15
0.41
-0.03
-1.09
-2.49
-3.96
-5.35
-6.65
-8.02
-9.66
-11.78
-14.51
-17.72
-21.03
-23.75
-25.04
-24.19
-20.85
-15.24
-8.12
-0.50
6.65
12.60
17.00
19.79
21.05
20.96
19.75
17.71
15.23
12.72
10.58
9.10
8.37
8.33
8.69
9.10
9.21
8.77
7.73
6.18
4.31
2.31
0.26
-1.84
-4.03
-6.41
-9.09
-12.17
-15.70
-19.53
-23.24
-26.07
-27.17
-25.87
-21.91
-15.64
-7.92
0.17
7.62
13.72
18.14
20.86
22.05
21.94
20.82
18.96
16.70
14.35
12.23
10.59
9.61
9.31
9.52
9.96
10.28
10.23
9.67
8.68
7.37
5.87
4.24
2.46
0.51
-1.63
-3.96
-6.47
-9.25
-12.37
-15.83
-19.42
-22.61
-24.63
-24.66
-22.14
-17.00
-9.81
-1.57
6.56
13.62
19.04
22.72
24.78
25.39
24.73
22.97
20.43
17.60
15.06
13.31
12.57
12.73
13.39
14.03
14.26
13.91
13.03
11.87
10.65
9.51
8.41
7.21
5.72
3.87
1.74
-0.44
-2.41
-3.96
-5.08
-5.91
-6.76
-7.97
-9.78
-12.32
-15.45
-18.78
-21.66
-23.32
-23.05
-20.44
-15.53
-8.89
-1.45
5.71
11.73
16.14
18.90
20.20
20.34
19.58
18.11
16.12
13.90
11.84
10.33
9.65
9.83
10.66
11.73
12.66
13.19
13.23
12.88
12.35
11.78
11.18
10.49
9.57
8.30
6.68
4.79
2.82
0.95
-0.68
-2.05
-3.25
-4.44
-5.79
-7.42
-9.42
-11.82
-14.60
-17.60
-20.47
-22.61
-23.36
-22.12
-18.68
-13.37
-7.03
-0.70
4.70
8.64
11.04
12.09
12.06
11.16
9.53
7.38
5.11
3.24
2.33
2.66
4.18
6.51
9.03
11.20
12.66
13.34
13.33
12.77
11.77
10.36
8.51
6.26
3.71
1.07
-1.44
-3.63
-5.39
-6.72
-7.70
-8.42
-9.06
-9.81
-10.88
-12.47
-14.63
-17.17
-19.64
-21.37
-21.70
-20.18
-16.75
-11.79
-5.93
0.04
5.43
9.73
12.60
13.89
13.63
12.05
9.57
6.76
4.19
2.31
1.35
1.25
1.80
2.67
3.57
4.30
4.71
4.79
4.57
4.07
3.34
2.38
1.18
-0.27
-1.96
-3.80
-5.72
-7.58
-9.29
-10.79
-12.06
-13.18
-14.26
-15.52
-17.13
-19.10
-21.21
-22.90
-23.47
-22.30
-19.07
-14.00
-7.72
-1.12
4.91
9.76
13.14
15.04
15.63
15.11
13.72
11.66
9.22
6.74
4.58
3.05
2.30
2.31
2.84
3.61
4.32
4.81
5.02
5.00
4.77
4.27
3.36
1.91
-0.10
-2.54
-5.13
-7.55
-9.56
-11.08
-12.14
-12.94
-13.72
-14.74
-16.26
-18.43
-21.13
-23.96
-26.14
-26.78
-25.18
-21.12
-14.98
-7.65
-0.22
6.41
11.67
15.39
17.63
18.54
18.24
16.89
14.79
12.33
10.04
8.40
7.64
7.74
8.36
9.09
9.52
9.47
8.94
8.11
7.14
6.08
4.90
3.45
1.65
-0.48
-2.79
-5.08
-7.19
-9.03
-10.61
-12.01
-13.36
-14.86
-16.69
-19.05
-21.94
-25.04
-27.71
-29.11
-28.46
-25.36
-19.93
-12.86
-5.13
2.22
8.46
13.16
16.23
17.71
17.77
16.56
14.38
11.61
8.77
6.38
4.83
4.27
4.59
5.45
6.45
7.25
7.69
7.77
7.54
7.02
6.18
4.92
3.16
0.94
-1.58
-4.18
-6.59
-8.67
-10.36
-11.75
-13.01
-14.36
-16.01
-18.09
-20.60
-23.30
-25.77
-27.40
-27.57
-25.79
-21.87
-16.01
-8.87
-1.35
5.55
11.00
14.51
16.00
15.68
13.98
11.43
8.54
5.76
3.48
1.98
1.41
1.79
2.94
4.58
6.37
7.97
9.14
9.71
9.61
8.82
7.34
5.21
2.51
-0.55
-3.70
-6.65
-9.22
-11.40
-13.40
-15.56
-18.23
-21.51
-25.14
-28.51
-30.80
-31.21
-29.24
-24.87
-18.51
-10.95
-3.11
4.11
9.97
14.07
16.24
16.59
15.44
13.17
10.26
7.09
4.00
1.26
-0.89
-2.25
-2.68
-2.24
-1.15
0.17
1.20
1.50
0.87
-0.64
-2.76
-5.14
-7.49
-9.71
-11.89
-14.20
-16.79
-19.73
-23.00
-26.52
-30.15
-33.67
-36.72
-38.82
-39.45
-38.21
-35.05
-30.24
-24.32
-17.82
-11.20
-4.72
1.35
6.51
10.04
11.26
9.97
6.89
3.71
2.60
5.51
13.28
25.14
38.68
50.47
57.02
55.94
46.79
31.22
12.57
-5.31
-19.28
-27.82
-31.17
-30.68
-27.82
-23.33
-17.19
-9.12
0.56
10.42
18.28
22.05
20.72
14.85
6.16
-3.34
-12.03
-18.93
-23.37
-24.85
-23.44
-20.43
-18.68
-21.88
-32.79
-51.17
-73.04
-91.73
-100.63
-96.15
-79.22
-54.56
-28.28
-5.13
12.91
26.35
36.74
45.10
51.36
54.78
54.77
51.71
46.96
42.28
38.98
37.36
36.66
35.56
33.00
28.58
22.77
16.58
11.08
7.01
4.56
3.62
3.92
5.34
7.92
11.81
17.03
23.33
30.13
36.57
41.69
44.70
45.13
43.04
39.01
34.01
29.08
25.05
22.31
20.84
20.32
20.31
20.48
20.63
20.71
20.70
20.54
20.10
19.22
17.81
15.82
13.30
10.34
7.12
3.81
0.57
-2.47
-5.33
-8.13
-11.04
-14.12
-17.16
-19.65
-20.89
-20.19
-17.22
-12.14
-5.59
1.53
8.33
14.07
18.38
21.10
22.26
21.97
20.45
18.04
15.22
12.50
10.34
9.05
8.67
9.03
9.79
10.54
10.96
10.79
9.96
8.50
6.53
4.20
1.61
-1.10
-3.83
-6.46
-8.88
-11.04
-13.04
-15.04
-17.22
-19.59
-21.85
-23.38
-23.44
-21.41
-17.05
-10.62
-2.81
5.45
13.22
19.73
24.48
27.29
28.18
27.34
25.08
21.81
18.07
14.42
11.46
9.62
9.06
9.67
11.08
12.77
14.26
15.19
15.35
14.63
13.06
10.79
8.07
5.24
2.63
0.47
-1.26
-2.83
-4.62
-7.03
-10.28
-14.25
-18.54
-22.40
-25.01
-25.61
-23.75
-19.45
-13.16
-5.72
1.87
8.66
13.95
17.38
18.90
18.74
17.29
15.02
12.41
9.91
7.88
6.54
6.03
6.30
7.21
8.48
9.83
10.93
11.56
11.56
10.88
9.64
8.04
6.30
4.60
2.95
1.31
-0.45
-2.40
-4.61
-7.13
-10.01
-13.27
-16.75
-20.03
-22.41
-23.09
-21.44
-17.33
-11.18
-3.89
3.46
9.92
14.90
18.14
19.67
19.64
18.29
15.95
13.03
10.02
7.41
5.56
4.63
4.56
5.13
6.06
7.10
8.03
8.62
8.64
7.92
6.44
4.33
1.86
-0.68
-3.07
-5.20
-7.10
-8.80
-10.40
-12.03
-13.87
-16.05
-18.53
-20.94
-22.59
-22.70
-20.69
-16.43
-10.39
-3.47
3.33
9.11
13.36
15.82
16.55
15.76
13.80
11.07
8.09
5.36
3.27
2.07
1.81
2.32
3.30
4.45
5.46
6.16
6.41
6.14
5.33
3.98
2.15
-0.05
-2.44
-4.78
-6.89
-8.69
-10.30
-11.95
-13.99
-16.62
-19.80
-23.09
-25.74
-26.89
-25.92
-22.60
-17.26
-10.64
-3.64
2.92
8.42
12.47
14.95
15.86
15.37
13.78
11.44
8.79
6.20
4.01
2.48
1.77
1.91
2.77
4.02
5.24
5.97
5.92
5.04
3.54
1.72
-0.14
-1.90
-3.62
-5.40
-7.33
-9.38
-11.47
-13.55
-15.75
-18.26
-21.16
-24.25
-26.92
-28.29
-27.50
-24.14
-18.35
-10.94
-3.01
4.32
10.20
14.20
16.24
16.49
15.25
12.89
9.89
6.70
3.81
1.65
0.45
0.25
0.86
1.96
3.19
4.23
4.91
5.15
4.90
4.14
2.82
0.96
-1.30
-3.66
-5.84
-7.66
-9.15
-10.55
-12.22
-14.44
-17.35
-20.78
-24.33
-27.32
-28.99
-28.59
-25.70
-20.38
-13.21
-5.21
2.44
8.81
13.36
16.05
17.11
16.87
15.65
13.67
11.21
8.64
6.42
4.94
4.41
4.73
5.62
6.70
7.72
8.58
9.28
9.78
9.98
9.65
8.58
6.71
4.19
1.31
-1.56
-4.18
-6.43
-8.43
-10.40
-12.64
-15.32
-18.40
-21.54
-24.11
-25.36
-24.68
-21.83
-16.99
-10.78
-3.98
2.61
8.34
12.79
15.68
16.91
16.51
14.70
11.92
8.71
5.63
3.13
1.47
0.71
0.74
1.35
2.28
3.24
4.02
4.47
4.52
4.18
3.52
2.60
1.49
0.23
-1.13
-2.57
-4.10
-5.82
-7.87
-10.41
-13.53
-17.09
-20.69
-23.67
-25.26
-24.79
-21.93
-16.84
-10.14
-2.74
4.32
10.21
14.41
16.73
17.28
16.32
14.22
11.38
8.28
5.34
2.95
1.36
0.68
0.77
1.39
2.16
2.73
2.79
2.26
1.19
-0.25
-1.80
-3.34
-4.83
-6.38
-8.15
-10.29
-12.92
-16.05
-19.55
-23.18
-26.52
-29.00
-30.01
-29.02
-25.77
-20.40
-13.49
-5.89
1.47
7.72
12.33
15.06
15.95
15.29
13.45
10.89
8.03
5.30
3.02
1.45
0.68
0.66
1.21
2.02
2.75
3.11
2.93
2.21
1.09
-0.22
-1.53
-2.78
-4.02
-5.39
-7.06
-9.17
-11.83
-15.05
-18.67
-22.32
-25.31
-26.81
-26.07
-22.69
-16.84
-9.23
-0.98
6.79
13.21
17.78
20.35
21.03
20.06
17.76
14.58
11.07
7.82
5.31
3.88
3.59
4.24
5.45
6.75
7.68
7.92
7.33
5.94
3.93
1.53
-1.09
-3.83
-6.69
-9.66
-12.76
-15.96
-19.23
-22.51
-25.60
-28.13
-29.53
-29.15
-26.51
-21.50
-14.56
-6.51
1.69
9.14
15.24
19.68
22.35
23.30
22.67
20.76
18.04
15.08
12.45
10.57
9.59
9.40
9.77
10.37
10.92
11.20
11.03
10.29
8.94
7.06
4.79
2.33
-0.15
-2.60
-5.08
-7.73
-10.75
-14.17
-17.82
-21.20
-23.63
-24.39
-22.97
-19.35
-13.92
-7.46
-0.87
5.09
9.98
13.60
15.92
16.92
16.57
14.87
11.97
8.31
4.47
1.16
-1.09
-1.96
-1.50
0.02
2.16
4.44
6.47
7.98
8.82
8.98
8.55
7.64
6.35
4.73
2.81
0.54
-2.15
-5.25
-8.64
-11.96
-14.60
-15.81
-14.88
-11.42
-5.58
1.96
10.12
17.77
24.02
28.39
30.78
31.40
30.49
28.32
25.15
21.33
17.27
13.49
10.42
8.35
7.31
7.06
7.22
7.41
7.37
7.01
6.35
5.48
4.43
3.17
1.64
-0.19
-2.34
-4.83
-7.69
-10.99
-14.75
-18.77
-22.54
-25.31
-26.25
-24.71
-20.57
-14.24
-6.61
1.24
8.31
13.95
17.87
20.09
20.79
20.18
18.46
15.95
13.01
10.13
7.74
6.16
5.41
5.32
5.52
5.65
5.45
4.83
3.84
2.64
1.41
0.22
-0.93
-2.14
-3.59
-5.43
-7.78
-10.64
-13.88
-17.21
-20.22
-22.35
-22.99
-21.66
-18.20
-12.83
-6.22
0.70
7.00
11.95
15.14
16.50
16.16
14.41
11.60
8.16
4.62
1.51
-0.71
-1.80
-1.79
-0.98
0.21
1.35
2.12
2.36
1.99
1.09
-0.26
-1.95
-3.93
-6.19
-8.82
-11.90
-15.48
-19.40
-23.27
-26.47
-28.25
-27.88
-24.99
-19.61
-12.32
-4.04
4.18
11.46
17.25
21.33
23.74
24.60
24.06
22.31
19.65
16.51
13.48
11.03
9.42
8.67
8.49
8.52
8.41
7.93
7.01
5.68
4.07
2.31
0.47
-1.44
-3.51
-5.88
-8.68
-11.95
-15.56
-19.16
-22.21
-24.09
-24.27
-22.42
-18.50
-12.83
-6.04
1.11
7.84
13.54
17.84
20.58
21.75
21.45
19.85
17.22
13.99
10.73
8.00
6.26
5.65
6.00
6.83
7.58
7.80
7.29
6.11
4.56
2.99
1.67
0.66
-0.23
-1.31
-2.85
-5.01
-7.75
-10.81
-13.82
-16.26
-17.61
-17.39
-15.27
-11.23
-5.58
1.01
7.68
13.56
17.98
20.58
21.34
20.50
18.42
15.53
12.29
9.14
6.47
4.62
3.77
3.89
4.79
6.12
7.47
8.46
8.82
8.40
7.24
5.49
3.43
1.29
-0.80
-2.85
-5.00
-7.43
-10.29
-13.58
-17.15
-20.68
-23.60
-25.22
-24.91
-22.22
-17.18
-10.36
-2.76
4.49
10.43
14.54
16.77
17.35
16.63
14.91
12.41
9.39
6.20
3.31
1.16
0.05
0.02
0.85
2.13
3.41
4.36
4.79
4.71
4.20
3.40
2.38
1.16
-0.34
-2.16
-4.23
-6.46
-8.72
-10.96
-13.25
-15.64
-17.98
-19.83
-20.50
-19.30
-15.90
-10.50
-3.85
2.99
9.01
13.52
16.25
17.22
16.66
14.86
12.17
9.02
5.88
3.23
1.36
0.38
0.10
0.21
0.37
0.30
-0.10
-0.78
-1.60
-2.41
-3.14
-3.82
-4.52
-5.40
-6.51
-7.92
-9.70
-11.88
-14.51
-17.52
-20.58
-23.08
-24.24
-23.37
-20.15
-14.85
-8.24
-1.35
4.86
9.74
13.09
14.99
15.67
15.33
14.14
12.25
9.90
7.41
5.18
3.53
2.72
2.77
3.49
4.47
5.25
5.40
4.76
3.44
1.80
0.19
-1.11
-2.12
-3.06
-4.22
-5.86
-8.11
-10.95
-14.27
-17.81
-21.14
-23.65
-24.64
-23.51
-20.07
-14.59
-7.88
-0.96
5.24
10.14
13.52
15.44
15.96
15.16
13.10
10.07
6.59
3.39
1.13
0.17
0.41
1.42
2.64
3.64
4.25
4.45
4.35
4.01
3.46
2.68
1.67
0.41
-1.18
-3.12
-5.39
-7.89
-10.43
-12.85
-15.00
-16.76
-17.90
-18.08
-16.80
-13.69
-8.70
-2.31
4.55
10.74
15.31
17.77
18.17
16.92
14.54
11.45
8.00
4.49
1.29
-1.17
-2.53
-2.64
-1.67
0.00
1.89
3.61
4.94
5.81
6.18
6.04
5.36
4.16
2.52
0.61
-1.44
-3.60
-5.97
-8.68
-11.79
-15.20
-18.49
-21.11
-22.41
-21.93
-19.50
-15.32
-9.91
-3.96
1.79
6.72
10.38
12.49
12.95
11.86
9.47
6.17
2.46
-1.09
-3.99
-5.87
-6.58
-6.17
-4.88
-3.13
-1.39
-0.08
0.54
0.40
-0.34
-1.40
-2.53
-3.59
-4.63
-5.80
-7.29
-9.18
-11.45
-13.98
-16.50
-18.71
-20.15
-20.36
-18.89
-15.56
-10.50
-4.23
2.44
8.70
13.81
17.38
19.23
19.43
18.15
15.68
12.43
8.94
5.76
3.32
1.82
1.22
1.26
1.61
1.96
2.10
1.93
1.43
0.63
-0.40
-1.59
-2.89
-4.30
-5.87
-7.70
-9.92
-12.56
-15.60
-18.80
-21.71
-23.75
-24.27
-22.79
-19.18
-13.73
-7.14
-0.31
5.88
10.82
14.18
15.88
16.03
14.82
12.53
9.57
6.50
3.91
2.25
1.72
2.19
3.32
4.64
5.79
6.52
6.73
6.44
5.69
4.57
3.16
1.56
-0.16
-2.05
-4.20
-6.79
-9.87
-13.36
-16.91
-19.94
-21.80
-21.88
-19.89
-15.87
-10.29
-3.87
2.61
8.45
13.17
16.45
18.19
18.35
17.04
14.52
11.22
7.74
4.67
2.45
1.29
1.14
1.73
2.73
3.76
4.54
4.86
4.63
3.90
2.82
1.59
0.37
-0.79
-2.02
-3.56
-5.67
-8.46
-11.82
-15.33
-18.34
-20.15
-20.13
-17.98
-13.81
-8.07
-1.51
5.03
10.81
15.29
18.14
19.24
18.66
16.63
13.51
9.78
6.01
2.75
0.47
-0.58
-0.40
0.72
2.29
3.77
4.75
5.02
4.64
3.82
2.78
1.64
0.39
-1.08
-2.85
-4.96
-7.35
-9.96
-12.68
-15.33
-17.55
-18.83
-18.61
-16.48
-12.43
-6.89
-0.64
5.43
10.59
14.42
16.79
17.74
17.33
15.69
13.02
9.69
6.26
3.37
1.50
0.86
1.31
2.41
3.68
4.67
5.17
5.14
4.69
3.95
3.03
2.02
0.95
-0.17
-1.34
-2.65
-4.20
-6.13
-8.48
-11.13
-13.74
-15.75
-16.54
-15.63
-12.81
-8.33
-2.78
3.05
8.40
12.71
15.67
17.16
17.21
15.97
13.66
10.64
7.33
4.26
1.84
0.37
-0.09
0.28
1.13
2.02
2.61
2.66
2.17
1.24
0.01
-1.41
-3.00
-4.80
-6.85
-9.16
-11.74
-14.54
-17.48
-20.33
-22.69
-23.99
-23.65
-21.28
-16.87
-10.85
-3.98
2.80
8.74
13.31
16.32
17.76
17.77
16.49
14.14
11.01
7.52
4.17
1.51
-0.06
-0.40
0.32
1.64
3.03
4.02
4.40
4.23
3.69
2.97
2.15
1.14
-0.20
-2.03
-4.42
-7.36
-10.77
-14.48
-18.19
-21.40
-23.44
-23.66
-21.65
-17.41
-11.47
-4.70
1.91
7.55
11.79
14.53
15.95
16.28
15.71
14.37
12.41
10.08
7.74
5.82
4.62
4.26
4.63
5.39
6.13
6.50
6.31
5.58
4.43
3.05
1.59
0.07
-1.55
-3.35
-5.35
-7.57
-9.99
-12.56
-15.13
-17.42
-18.95
-19.15
-17.58
-14.11
-9.03
-2.97
3.27
8.98
13.66
17.04
18.94
19.31
18.15
15.69
12.36
8.78
5.61
3.38
2.30
2.31
3.08
4.20
5.26
5.94
6.09
5.73
4.95
3.88
2.63
1.27
-0.21
-1.79
-3.50
-5.37
-7.48
-9.88
-12.55
-15.30
-17.69
-19.19
-19.24
-17.49
-13.94
-8.92
-3.04
3.00
8.55
13.13
16.43
18.31
18.84
18.16
16.53
14.29
11.81
9.46
7.58
6.43
6.07
6.42
7.21
8.12
8.79
9.03
8.75
7.99
6.84
5.39
3.68
1.73
-0.42
-2.66
-4.89
-7.02
-9.06
-11.10
-13.24
-15.46
-17.46
-18.67
-18.46
-16.32
-12.19
-6.51
-0.12
6.06
11.32
15.25
17.79
18.99
18.93
17.70
15.40
12.35
9.02
5.96
3.67
2.42
2.24
2.92
4.13
5.50
6.75
7.66
8.11
8.05
7.47
6.41
4.95
3.25
1.46
-0.27
-1.92
-3.56
-5.39
-7.59
-10.24
-13.17
-15.94
-17.95
-18.59
-17.46
-14.48
-10.02
-4.72
0.62
5.29
8.79
10.92
11.68
11.26
9.92
7.96
5.72
3.53
1.73
0.55
0.10
0.32
1.02
1.90
2.62
2.96
2.78
2.11
1.11
-0.03
-1.10
-1.99
-2.68
-3.26
-3.93
-4.84
-6.16
-7.94
-10.14
-12.63
-15.08
-17.02
-17.92
-17.26
-14.74
-10.45
-4.81
1.49
7.71
13.26
17.73
20.92
22.73
23.15
22.26
20.34
17.85
15.38
13.52
12.62
12.74
13.59
14.68
15.46
15.47
14.50
12.58
9.99
7.12
4.32
1.70
-0.86
-3.73
-7.29
-11.81
-17.27
-23.40
-29.76
-35.86
-41.27
-45.59
-48.48
-49.54
-48.46
-45.05
-39.45
-32.10
-23.81
-15.56
-8.28
-2.65
1.09
3.09
3.81
3.73
3.25
2.62
1.94
1.32
0.90
0.89
1.45
2.62
4.21
5.90
7.32
8.22
8.54
8.38
7.93
7.37
6.78
6.13
5.29
4.16
2.66
0.76
-1.50
-4.06
-6.79
-9.37
-11.33
-12.08
-11.12
-8.26
-3.71
1.91
7.81
13.21
17.54
20.54
22.13
22.43
21.62
19.92
17.58
14.90
12.14
9.55
7.33
5.64
4.57
4.16
4.31
4.77
5.24
5.42
5.06
4.14
2.74
1.04
-0.78
-2.56
-4.25
-5.84
-7.37
-8.96
-10.72
-12.73
-14.94
-17.03
-18.46
-18.57
-16.85
-13.13
-7.69
-1.26
5.25
10.95
15.20
17.70
18.51
17.90
16.31
14.17
11.87
9.74
8.02
6.87
6.36
6.54
7.31
8.52
9.88
11.07
11.86
12.14
11.97
11.52
10.96
10.35
9.71
8.99
8.20
7.38
6.56
5.72
4.68
3.31
1.60
-0.18
-1.43
-1.49
0.26
4.07
9.72
16.59
23.76
30.27
35.26
38.15
38.77
37.34
34.43
30.77
27.12
24.05
21.85
20.57
20.10
20.24
20.77
21.47
22.13
22.51
22.48
22.02
21.26
20.36
19.40
18.28
16.61
13.98
10.06
4.86
-1.26
-7.66
-13.59
-18.43
-21.82
-23.62
-23.92
-22.86
-20.63
-17.39
-13.45
-9.27
-5.56
-3.08
-2.53
-4.21
-8.14
-14.27
-22.86
-34.67
-50.64
-71.23
-95.80
-122.31
-147.72
-168.74
-182.62
-187.40
-181.95
-165.70
-138.83
-102.72
-60.49
-16.95
22.37
52.95
72.87
83.46
88.47
92.09
96.96
103.09
108.27
109.67
105.58
96.35
84.09
71.48
60.43
51.45
43.92
36.86
29.71
22.70
16.46
11.52
7.90
5.03
2.14
-1.38
-5.56
-9.97
-13.78
-16.30
-17.19
-16.65
-15.31
-13.95
-13.19
-13.27
-14.09
-15.31
-16.54
-17.47
-17.93
-17.76
-16.87
-15.25
-12.97
-10.20
-7.09
-3.71
-0.06
3.80
7.51
10.41
11.62
10.45
6.74
1.05
-5.56
-11.87
-17.00
-20.54
-22.55
-23.25
-22.86
-21.45
-19.11
-16.10
-12.86
-9.95
-7.86
-6.83
-6.82
-7.55
-8.66
-9.83
-10.83
-11.54
-11.86
-11.65
-10.80
-9.21
-6.94
-4.16
-1.15
1.81
4.56
7.01
9.21
11.16
12.81
14.03
14.73
14.92
14.74
14.42
14.13
13.89
13.63
13.19
12.47
11.46
10.27
9.10
8.19
7.75
7.91
8.57
9.37
9.73
9.10
7.17
4.13
0.55
-2.78
-5.19
-6.34
-6.32
-5.44
-4.07
-2.44
-0.65
1.27
3.24
5.13
6.70
7.71
8.04
7.69
6.90
6.08
5.70
6.07
7.28
9.14
11.32
13.55
15.69
17.72
19.61
21.18
22.12
22.15
21.19
19.42
17.26
15.06
13.05
11.22
9.53
8.06
7.00
6.58
6.74
7.12
7.07
6.02
3.77
0.59
-2.90
-6.00
-8.31
-9.82
-10.85
-11.79
-12.82
-13.85
-14.53
-14.51
-13.61
-11.94
-9.87
-7.84
-6.23
-5.27
-4.94
-5.03
-5.28
-5.37
-5.13
-4.52
-3.63
-2.56
-1.35
0.07
1.89
4.27
7.26
10.70
14.24
17.42
19.85
21.32
21.82
21.50
20.60
19.33
17.83
16.24
14.69
13.46
12.84
13.06
14.18
15.99
18.06
19.97
21.43
22.40
23.03
23.43
23.56
23.23
22.16
20.16
17.26
13.68
9.73
5.73
1.87
-1.81
-5.36
-8.89
-12.50
-16.30
-20.34
-24.66
-29.24
-33.97
-38.65
-42.94
-46.48
-48.89
-49.92
-49.53
-47.90
-45.42
-42.57
-39.73
-37.07
-34.62
-32.21
-29.68
-27.03
-24.39
-21.96
-19.94
-18.34
-16.90
-15.31
-13.29
-10.84
-8.23
-5.89
-4.17
-3.15
-2.68
-2.45
-2.21
-1.90
-1.63
-1.57
-1.82
-2.34
-2.99
-3.70
-4.47
-5.48
-6.92
-8.90
-11.44
-14.40
-17.59
-20.75
-23.70
-26.22
-28.11
-29.04
-28.63
-26.53
-22.57
-16.93
-10.18
-3.15
3.24
8.28
11.63
13.35
13.81
13.48
12.78
12.03
11.40
11.00
10.84
10.87
11.00
11.10
11.11
10.96
10.72
10.42
10.12
9.80
9.40
8.85
8.10
7.21
6.28
5.44
4.77
4.26
3.84
3.43
2.96
2.47
2.03
1.74
1.62
1.58
1.49
1.16
0.48
-0.63
-2.23
-4.32
-6.84
-9.59
-12.21
-14.20
-15.06
-14.50
-12.53
-9.51
-5.99
-2.51
0.55
3.09
5.20
6.96
8.39
9.34
9.66
9.27
8.34
7.22
6.36
6.12
6.53
7.41
8.36
9.04
9.28
9.12
8.72
8.20
7.58
6.77
5.67
4.29
2.81
1.51
0.66
0.33
0.35
0.36
0.02
-0.85
-2.15
-3.55
-4.69
-5.32
-5.48
-5.44
-5.61
-6.29
-7.65
-9.60
-11.99
-14.60
-17.22
-19.60
-21.34
-21.94
-20.95
-18.19
-13.88
-8.66
-3.34
1.30
4.86
7.28
8.76
9.54
9.75
9.44
8.66
7.58
6.51
5.77
5.58
5.92
6.57
7.24
7.70
7.91
7.97
8.03
8.19
8.39
8.49
8.32
7.80
6.95
5.87
4.68
3.51
2.45
1.61
1.04
0.76
0.70
0.72
0.66
0.42
-0.02
-0.61
-1.24
-1.86
-2.46
-3.15
-4.02
-5.14
-6.41
-7.62
-8.46
-8.61
-7.92
-6.41
-4.30
-1.89
0.57
2.91
4.99
6.67
7.76
8.07
7.53
6.29
4.73
3.30
2.33
1.89
1.79
1.77
1.59
1.21
0.78
0.50
0.48
0.71
1.03
1.21
1.08
0.52
-0.43
-1.65
-2.93
-4.06
-4.89
-5.40
-5.75
-6.13
-6.74
-7.58
-8.55
-9.43
-10.09
-10.50
-10.78
-11.13
-11.70
-12.60
-13.79
-15.14
-16.36
-17.10
-16.94
-15.53
-12.77
-8.85
-4.22
0.50
4.74
8.09
10.34
11.45
11.51
10.67
9.17
7.26
5.25
3.39
1.84
0.67
-0.16
-0.74
-1.21
-1.71
-2.35
-3.17
-4.18
-5.34
-6.57
-7.86
-9.24
-10.79
-12.61
-14.73
-17.18
-19.90
-22.78
-25.71
-28.61
-31.45
-34.26
-37.16
-40.33
-43.89
-47.84
-51.87
-55.31
-57.20
-56.50
-52.55
-45.30
-35.57
-24.81
-14.76
-6.91
-2.16
-0.66
-1.83
-4.38
-6.60
-6.58
-2.62
6.18
19.54
35.96
53.02
68.22
79.71
86.87
90.24
91.05
90.63
89.90
89.22
88.39
86.80
83.68
78.22
69.90
58.78
45.62
31.76
18.74
7.71
-0.96
-7.62
-13.07
-18.04
-22.91
-27.66
-32.07
-35.90
-38.86
-40.62
-40.76
-38.91
-35.03
-29.50
-23.11
-16.78
-11.23
-6.79
-3.45
-1.00
0.71
1.77
2.23
2.14
1.71
1.16
0.66
0.23
-0.20
-0.69
-1.20
-1.55
-1.53
-1.01
-0.02
1.23
2.42
3.29
3.68
3.62
3.22
2.53
1.52
0.12
-1.74
-4.02
-6.62
-9.37
-12.16
-14.91
-17.50
-19.68
-21.06
-21.21
-19.76
-16.69
-12.23
-6.93
-1.41
3.83
8.42
12.24
15.28
17.64
19.44
20.83
21.87
22.62
23.13
23.54
24.04
24.90
26.29
28.17
30.32
32.31
33.73
34.34
34.13
33.27
31.99
30.44
28.60
26.36
23.59
20.24
16.36
12.10
7.69
3.36
-0.67
-4.13
-6.76
-8.34
-8.76
-8.03
-6.30
-3.78
-0.71
2.70
6.11
9.10
11.12
11.59
10.09
6.49
1.07
-5.61
-12.88
-20.18
-27.06
-33.36
-38.97
-43.87
-48.11
-51.74
-54.91
-57.72
-60.17
-62.05
-63.08
-62.99
-61.72
-59.59
-57.15
-55.08
-53.83
-53.54
-54.01
-54.84
-55.66
-56.24
-56.42
-56.05
-54.85
-52.47
-48.67
-43.58
-37.72
-31.95
-27.15
-23.94
-22.46
-22.42
-23.27
-24.46
-25.59
-26.46
-26.97
-27.03
-26.47
-25.14
-22.91
-19.83
-16.07
-11.94
-7.80
-3.98
-0.78
1.58
3.00
3.50
3.23
2.41
1.26
-0.07
-1.57
-3.33
-5.53
-8.28
-11.65
-15.60
-19.85
-23.99
-27.32
-29.11
-28.75
-25.88
-20.62
-13.45
-5.11
3.58
11.92
19.36
25.59
30.38
33.69
35.58
36.26
36.03
35.23
34.19
33.14
32.23
31.50
30.97
30.58
30.23
29.78
29.03
27.82
26.04
23.70
20.87
17.73
14.42
11.00
7.43
3.59
-0.67
-5.46
-10.76
-16.31
-21.62
-25.96
-28.57
-28.80
-26.32
-21.23
-14.04
-5.57
3.27
11.60
18.78
24.49
28.73
31.69
33.59
34.55
34.58
33.69
32.01
29.89
27.87
26.43
25.83
25.97
26.50
26.94
26.89
26.17
24.79
22.90
20.68
18.27
15.76
13.13
10.31
7.19
3.61
-0.52
-5.28
-10.56
-16.13
-21.54
-26.20
-29.44
-30.58
-29.15
-24.99
-18.38
-10.00
-0.82
8.13
16.00
22.28
26.78
29.57
30.88
31.01
30.24
28.90
27.30
25.69
24.34
23.34
22.74
22.51
22.58
22.82
23.04
23.03
22.58
21.55
19.89
17.67
15.05
12.18
9.21
6.22
3.21
0.10
-3.23
-6.92
-11.07
-15.60
-20.21
-24.34
-27.28
-28.31
-26.94
-22.98
-16.65
-8.52
0.65
9.95
18.60
25.91
31.41
34.89
36.39
36.16
34.58
32.17
29.42
26.79
24.71
23.45
23.17
23.83
25.23
27.03
28.86
30.32
31.14
31.14
30.31
28.75
26.63
24.16
21.54
18.92
16.43
14.11
11.92
9.71
7.22
4.19
0.53
-3.57
-7.53
-10.47
-11.51
-10.04
-6.01
0.09
7.38
14.87
21.81
27.79
32.63
36.28
38.69
39.74
39.37
37.71
35.09
32.07
29.14
26.69
24.80
23.36
22.14
20.91
19.57
18.12
16.62
15.10
13.57
11.93
10.06
7.85
5.20
2.16
-1.14
-4.46
-7.61
-10.48
-13.17
-15.88
-18.91
-22.49
-26.63
-31.08
-35.38
-38.91
-41.03
-41.21
-39.14
-34.76
-28.36
-20.51
-11.97
-3.57
3.99
10.24
14.97
18.27
20.36
21.53
22.02
22.03
21.73
21.28
20.87
20.66
20.72
21.01
21.43
21.81
21.96
21.80
21.30
20.48
19.42
18.15
16.68
15.01
13.12
10.99
8.66
6.16
3.54
0.86
-1.81
-4.42
-6.94
-9.33
-11.62
-13.92
-16.41
-19.32
-22.73
-26.54
-30.30
-33.37
-35.02
-34.69
-32.11
-27.36
-20.87
-13.26
-5.27
2.34
8.94
14.06
17.50
19.38
19.98
19.68
18.85
17.76
16.61
15.56
14.81
14.50
14.70
15.35
16.28
17.23
17.93
18.16
17.79
16.83
15.40
13.68
11.87
10.08
8.32
6.52
4.57
2.44
0.15
-2.18
-4.43
-6.56
-8.60
-10.69
-12.92
-15.33
-17.90
-20.57
-23.30
-25.99
-28.49
-30.52
-31.67
-31.51
-29.67
-26.04
-20.77
-14.31
-7.24
-0.23
6.12
11.32
15.02
17.08
17.53
16.63
14.78
12.49
10.21
8.26
6.80
5.79
5.12
4.64
4.27
3.98
3.78
3.66
3.59
3.49
3.23
2.68
1.71
0.20
-1.85
-4.34
-7.06
-9.75
-12.14
-14.09
-15.60
-16.77
-17.77
-18.80
-20.07
-21.71
-23.77
-26.16
-28.63
-30.75
-31.98
-31.84
-30.01
-26.45
-21.45
-15.53
-9.30
-3.37
1.87
6.18
9.48
11.81
13.22
13.82
13.76
13.24
12.47
11.69
11.12
10.88
11.02
11.48
12.13
12.81
13.35
13.59
13.40
12.72
11.52
9.86
7.83
5.59
3.32
1.11
-0.98
-2.95
-4.86
-6.72
-8.53
-10.30
-12.07
-13.96
-16.09
-18.51
-21.13
-23.58
-25.36
-25.88
-24.74
-21.83
-17.46
-12.18
-6.68
-1.51
2.95
6.55
9.25
11.02
11.84
11.74
10.84
9.34
7.55
5.75
4.23
3.18
2.66
2.64
2.98
3.46
3.83
3.95
3.78
3.34
2.72
1.97
1.09
0.04
-1.21
-2.65
-4.24
-5.91
-7.66
-9.45
-11.35
-13.40
-15.58
-17.74
-19.56
-20.61
-20.44
-18.83
-15.80
-11.68
-7.05
-2.44
1.70
5.15
7.83
9.73
10.82
11.06
10.43
9.02
7.08
4.93
2.92
1.33
0.34
-0.06
0.02
0.38
0.75
0.97
0.89
0.50
-0.16
-1.04
-2.11
-3.36
-4.79
-6.37
-8.07
-9.90
-11.94
-14.29
-17.05
-20.12
-23.15
-25.58
-26.72
-26.05
-23.37
-18.92
-13.23
-7.00
-0.80
4.93
9.92
13.93
16.73
18.09
17.99
16.67
14.58
12.29
10.29
8.79
7.77
7.09
6.57
6.12
5.73
5.37
4.97
4.37
3.40
1.98
0.13
-1.97
-4.11
-6.15
-8.14
-10.21
-12.60
-15.40
-18.50
-21.50
-23.85
-24.96
-24.40
-22.03
-18.01
-12.76
-6.81
-0.73
4.98
9.91
13.76
16.37
17.69
17.81
16.99
15.58
13.94
12.42
11.20
10.37
9.90
9.78
9.96
10.36
10.86
11.24
11.28
10.84
9.92
8.63
7.12
5.51
3.75
1.75
-0.64
-3.53
-6.90
-10.58
-14.37
-17.91
-20.79
-22.58
-22.85
-21.31
-17.91
-12.97
-7.09
-1.02
4.49
8.87
11.83
13.37
13.67
13.03
11.78
10.19
8.49
6.87
5.50
4.51
4.01
3.99
4.36
4.91
5.41
5.62
5.44
4.83
3.81
2.41
0.62
-1.53
-3.97
-6.50
-8.87
-10.93
-12.65
-14.14
-15.60
-17.14
-18.69
-19.94
-20.44
-19.71
-17.46
-13.66
-8.61
-2.84
2.98
8.22
12.38
15.20
16.64
16.84
16.10
14.76
13.17
11.65
10.43
9.71
9.58
10.04
11.08
12.53
14.21
15.82
17.09
17.81
17.85
17.23
16.03
14.43
12.65
10.96
9.57
8.62
8.07
7.70
7.25
6.43
5.11
3.38
1.51
-0.14
-1.15
-1.21
-0.13
2.09
5.22
8.86
12.42
15.28
16.96
17.21
16.12
14.03
11.40
8.67
6.13
3.93
2.13
0.77
-0.11
-0.47
-0.31
0.23
0.92
1.44
1.52
0.99
-0.17
-1.84
-3.86
-6.07
-8.36
-10.71
-13.12
-15.60
-18.13
-20.65
-23.10
-25.40
-27.49
-29.28
-30.56
-31.02
-30.33
-28.16
-24.45
-19.42
-13.63
-7.81
-2.66
1.35
4.07
5.62
6.26
6.25
5.80
5.01
4.04
3.12
2.48
2.31
2.62
3.22
3.79
4.04
3.77
2.95
1.66
0.00
-1.97
-4.22
-6.69
-9.28
-11.84
-14.19
-16.28
-18.21
-20.14
-22.24
-24.56
-26.96
-29.14
-30.68
-31.14
-30.13
-27.46
-23.14
-17.45
-10.88
-4.01
2.55
8.35
13.08
16.58
18.81
19.75
19.50
18.27
16.43
14.44
12.73
11.53
10.84
10.48
10.19
9.84
9.45
9.11
8.91
8.75
8.40
7.58
6.10
3.98
1.48
-1.07
-3.36
-5.23
-6.74
-8.09
-9.53
-11.24
-13.28
-15.51
-17.68
-19.42
-20.33
-20.12
-18.60
-15.77
-11.81
-7.03
-1.82
3.39
8.15
12.16
15.15
17.02
17.77
17.54
16.52
14.96
13.12
11.24
9.55
8.17
7.23
6.77
6.78
7.18
7.84
8.53
8.99
9.00
8.44
7.36
5.95
4.48
3.15
2.05
1.03
-0.18
-1.84
-4.07
-6.78
-9.72
-12.52
-14.85
-16.38
-16.84
-16.00
-13.78
-10.26
-5.77
-0.88
3.77
7.58
10.22
11.58
11.75
10.94
9.33
7.09
4.44
1.66
-0.89
-2.84
-3.94
-4.12
-3.49
-2.36
-1.09
-0.06
0.47
0.29
-0.64
-2.20
-4.15
-6.21
-8.13
-9.79
-11.26
-12.66
-14.16
-15.80
-17.56
-19.30
-20.85
-22.02
-22.54
-22.14
-20.60
-17.86
-14.15
-9.90
-5.62
-1.73
1.58
4.28
6.44
8.04
8.93
8.97
8.10
6.49
4.51
2.60
1.12
0.26
-0.04
0.01
0.14
0.15
-0.01
-0.26
-0.52
-0.75
-1.07
-1.64
-2.60
-3.99
-5.71
-7.60
-9.52
-11.42
-13.28
-15.06
-16.57
-17.55
-17.68
-16.71
-14.59
-11.45
-7.60
-3.40
0.73
4.44
7.44
9.52
10.57
10.57
9.62
7.94
5.87
3.78
2.00
0.73
0.00
-0.30
-0.40
-0.53
-0.88
-1.55
-2.62
-4.05
-5.73
-7.50
-9.17
-10.63
-11.86
-12.92
-13.97
-15.16
-16.64
-18.44
-20.52
-22.66
-24.50
-25.60
-25.59
-24.27
-21.79
-18.54
-15.02
-11.73
-8.97
-6.92
-5.67
-5.30
-5.90
-7.49
-9.93
-12.96
-16.23
-19.39
-22.29
-24.90
-27.30
-29.60
-31.88
-34.18
-36.62
-39.40
-42.86
-47.29
-52.71
-58.68
-64.28
-68.33
-69.89
-68.79
-65.76
-62.21
-59.47
-58.06
-57.35
-55.66
-50.90
-41.32
-25.84
-4.14
23.48
56.02
91.57
127.04
158.49
181.96
194.74
196.25
188.16
173.56
155.63
136.75
118.19
100.60
84.63
71.17
61.16
54.94
51.84
50.34
48.68
45.53
40.50
34.06
27.09
20.43
14.52
9.32
4.50
-0.39
-5.67
-11.45
-17.61
-23.76
-29.39
-34.00
-37.22
-39.02
-39.71
-39.84
-40.06
-40.88
-42.61
-45.33
-48.85
-52.80
-56.65
-59.67
-61.16
-60.46
-57.25
-51.58
-43.93
-35.11
-26.02
-17.46
-10.03
-4.22
-0.38
1.17
0.22
-3.11
-8.32
-14.40
-20.12
-24.27
-26.05
-25.30
-22.42
-18.29
-13.89
-10.12
-7.63
-6.78
-7.69
-10.29
-14.48
-20.12
-27.05
-35.04
-43.71
-52.61
-61.31
-69.53
-77.21
-84.39
-91.05
-97.00
-101.85
-105.20
-106.86
-106.93
-105.75
-103.57
-100.38
-95.89
-89.75
-81.84
-72.47
-62.19
-51.63
-41.18
-31.03
-21.30
-12.27
-4.44
1.55
