-0.000
49158
1500966289.408	64.000	0.010	0.010	1.489
65535
-1.519	-1.539	-1.539	-1.489	-1.359	-1.129	-0.829	-0.479	-0.119	0.231	0.571	0.911	1.301	1.751	2.311	2.931	9.935
65535
-4.875	-4.275	-3.735	-3.255	-2.785	-2.255	-1.625	-0.795	0.155	1.105	1.945	2.625	3.205	3.825	4.715	6.025	41.299
65535
-23.389	-20.979	-18.399	-15.919	-13.719	-11.729	-9.619	-6.979	-3.489	1.241	6.851	12.801	18.531	23.671	28.281	32.841	142.401
65535
-63.061	-56.691	-48.641	-39.401	-29.781	-20.671	-12.631	-5.651	0.899	8.349	15.369	24.239	35.549	49.389	64.569	78.169	-75.350
65535
303.600	300.710	283.880	252.220	208.110	155.400	98.420	40.410	-17.090	-73.810	-129.880	-185.020	-238.390	-288.520	-334.480	-375.560	-381.731
65535
-104.769	-134.009	-155.499	-167.489	-168.229	-156.639	-132.479	-96.939	-52.149	-0.719	54.711	111.891	169.101	225.071	278.781	329.361	138.094
65535
-143.994	-102.514	-66.664	-36.744	-12.594	6.286	20.596	31.056	38.276	42.656	44.476	43.976	41.416	37.136	31.556	25.086	101.295
65535
54.855	47.515	40.005	32.395	24.725	17.035	9.395	1.865	-5.495	-12.615	-19.465	-26.045	-32.345	-38.345	-44.045	-49.435	21.262
65535
25.518	20.768	16.328	12.188	8.348	4.808	1.548	-1.432	-4.152	-6.592	-8.782	-10.722	-12.432	-13.912	-15.192	-16.292	1.216
65535
2.834	2.054	1.404	0.874	0.434	0.084	-0.206	-0.426	-0.606	-0.746	-0.846	-0.916	-0.956	-0.976	-0.996	-1.016	-0.003
65535
0.153	0.083	0.013	-0.047	-0.077	-0.067	-0.027	0.033	0.063	0.053	0.013	-0.047	-0.087	-0.087	-0.027	0.063	-0.037
65535
0.187	0.227	0.187	0.067	-0.083	-0.193	-0.193	-0.053	0.187	0.427	0.517	0.397	0.067	-0.343	-0.673	-0.723	-0.107
65535
-0.363	0.167	0.697	0.957	0.767	0.137	-0.683	-1.343	-1.503	-1.043	-0.133	0.817	1.337	1.107	0.177	-1.093	-4.227
65535
1.997	1.657	2.187	3.397	4.827	5.927	6.247	5.457	3.277	-0.323	-4.873	-9.133	-11.373	-9.953	-4.213	4.897	8.321
65535
2.549	11.039	15.729	16.079	13.119	8.679	4.309	0.719	-2.231	-4.991	-7.741	-10.161	-11.751	-12.231	-11.861	-11.251	-4.175
65535
1.485	1.005	-0.035	-1.165	-1.885	-1.915	-1.335	-0.445	0.355	0.795	0.775	0.495	0.195	0.125	0.435	1.115	3.288
65535
-5.448	-4.648	-4.248	-4.478	-5.288	-6.378	-7.188	-7.158	-5.858	-3.188	0.542	4.742	8.722	11.862	13.752	14.262	7.971
65535
8.849	7.209	5.039	2.689	0.459	-1.431	-2.841	-3.701	-4.021	-3.821	-3.231	-2.411	-1.561	-0.851	-0.371	-0.011	5.173
65535
3.137	3.597	4.177	4.807	5.257	5.267	4.657	3.367	1.587	-0.323	-2.043	-3.443	-4.683	-6.153	-8.233	-10.983	-18.499
65535
9.519	6.469	4.039	2.499	1.729	1.389	1.099	0.689	0.149	-0.471	-1.211	-2.251	-3.721	-5.471	-6.991	-7.471	5.743
65535
-30.393	-26.943	-21.583	-15.003	-8.163	-1.853	3.467	7.677	10.847	13.027	14.197	14.287	13.317	11.467	9.077	6.577	8.184
65535
1.896	0.236	-0.694	-0.884	-0.514	0.136	0.706	0.946	0.776	0.346	-0.064	-0.264	-0.214	-0.184	-0.554	-1.674	-9.879
65535
14.439	11.909	9.279	6.989	5.269	4.019	2.899	1.599	-0.061	-1.991	-4.041	-6.031	-7.981	-9.981	-12.111	-14.201	-0.418
65535
-25.282	-25.782	-24.582	-21.402	-16.442	-10.242	-3.582	2.848	8.498	13.068	16.388	18.388	19.028	18.388	16.638	14.078	5.936
65535
4.774	1.894	-0.506	-2.096	-2.766	-2.596	-1.886	-1.006	-0.266	0.204	0.464	0.674	0.894	1.054	0.914	0.244	-9.556
65535
14.446	12.666	10.646	8.636	6.766	5.006	3.276	1.456	-0.434	-2.344	-4.224	-6.144	-8.274	-10.794	-13.754	-16.924	-6.907
65535
-22.513	-24.553	-25.093	-23.713	-20.323	-15.163	-8.753	-1.803	4.967	10.977	15.817	19.357	21.647	22.867	23.247	23.037	10.738
65535
4.852	4.212	3.642	3.172	2.672	1.972	0.922	-0.408	-1.748	-2.748	-3.158	-2.988	-2.528	-2.208	-2.398	-3.258	-10.428
65535
16.488	14.708	12.748	10.628	8.278	5.648	2.828	0.088	-2.322	-4.212	-5.682	-7.062	-8.792	-11.192	-14.312	-17.832	-6.629
65535
-24.951	-27.341	-28.141	-26.891	-23.421	-17.911	-10.841	-2.931	4.999	12.229	18.189	22.579	25.329	26.589	26.649	25.859	11.272
65535
6.648	5.098	3.498	1.948	0.498	-0.782	-1.822	-2.542	-2.862	-2.792	-2.392	-1.782	-1.122	-0.602	-0.382	-0.612	-8.124
65535
17.964	16.524	14.474	11.954	9.184	6.334	3.594	1.034	-1.376	-3.676	-5.926	-8.246	-10.756	-13.616	-16.916	-20.546	-6.924
65535
-25.356	-28.286	-29.726	-29.006	-25.776	-20.216	-12.916	-4.716	3.554	11.264	18.014	23.544	27.674	30.254	31.174	30.514	10.123
65535
11.557	8.887	6.057	3.557	1.667	0.387	-0.453	-1.093	-1.733	-2.453	-3.203	-3.893	-4.413	-4.733	-4.933	-5.203	-13.876
65535
18.206	17.066	15.266	12.806	9.906	6.846	3.916	1.266	-1.114	-3.424	-5.914	-8.804	-12.074	-15.444	-18.374	-20.124	3.822
65535
-37.662	-35.112	-30.032	-22.812	-14.252	-5.432	2.648	9.248	14.108	17.318	19.118	19.698	19.128	17.458	14.848	11.728	6.471
65535
5.989	3.449	1.719	0.749	0.269	0.069	0.019	0.159	0.489	0.859	1.009	0.609	-0.541	-2.421	-4.851	-7.581	-20.561
65535
16.661	13.881	11.121	8.261	5.141	1.601	-2.449	-6.839	-11.069	-14.319	-15.629	-14.239	-9.879	-2.919	5.731	14.951	17.894
65535
-14.724	-7.054	-0.804	3.966	7.296	9.216	9.756	8.986	7.086	4.376	1.276	-1.824	-4.534	-6.614	-7.924	-8.484	0.028
65535
9.462	9.932	10.502	10.852	10.722	9.892	8.252	5.822	2.762	-0.668	-4.218	-7.688	-11.048	-14.418	-18.028	-22.128	-15.007
65535
-11.793	-16.903	-21.913	-26.003	-28.223	-27.773	-24.253	-17.833	-9.183	0.707	10.827	20.377	28.857	35.977	41.577	45.557	18.073
65535
14.737	15.267	14.197	11.837	8.537	4.817	1.097	-2.223	-4.893	-6.833	-8.063	-8.763	-9.143	-9.463	-10.023	-11.083	-25.420
65535
30.640	28.070	24.790	21.010	17.050	13.160	9.480	5.930	2.210	-2.080	-7.400	-13.950	-21.510	-29.400	-36.490	-41.510	-35.273
65535
-33.567	-31.947	-27.097	-19.977	-11.877	-4.007	2.733	7.923	11.523	13.693	14.703	14.873	14.633	14.613	15.563	18.223	47.341
65535
-59.511	-52.331	-43.261	-33.011	-22.301	-11.721	-1.621	7.809	16.269	23.439	28.839	32.089	32.959	31.479	27.959	22.909	18.768
65535
45.512	39.182	32.902	26.852	21.012	15.142	8.942	2.222	-5.078	-12.758	-20.308	-26.948	-31.748	-33.838	-32.688	-28.398	26.477
65535
-29.327	-21.187	-12.897	-5.397	0.793	5.563	9.003	11.203	12.163	11.853	10.273	7.693	4.523	1.273	-1.607	-3.927	12.376
65535
8.434	7.064	5.864	4.694	3.524	2.434	1.534	0.864	0.324	-0.266	-1.126	-2.406	-4.196	-6.406	-8.886	-11.446	-19.186
65535
17.656	15.376	13.296	11.346	9.366	7.096	4.286	0.766	-3.414	-7.894	-12.014	-14.904	-15.724	-13.874	-9.214	-2.144	15.204
65535
-27.904	-18.794	-10.244	-3.044	2.426	6.106	8.216	9.056	8.906	7.996	6.526	4.766	3.036	1.656	0.806	0.486	12.313
65535
3.397	3.507	3.567	3.527	3.457	3.447	3.427	3.267	2.787	1.827	0.367	-1.543	-3.813	-6.343	-9.043	-11.843	-21.987
65535
19.687	17.017	14.497	12.057	9.577	6.897	3.867	0.397	-3.473	-7.533	-11.373	-14.353	-15.723	-14.823	-11.333	-5.383	12.713
65535
-32.303	-23.623	-14.983	-7.173	-0.633	4.417	7.977	10.117	10.967	10.727	9.697	8.187	6.487	4.817	3.307	2.007	12.333
65535
1.357	0.667	0.387	0.547	1.067	1.817	2.607	3.187	3.367	2.977	1.957	0.327	-1.733	-4.003	-6.243	-8.293	-16.909
65535
19.089	17.309	15.369	13.099	10.419	7.429	4.319	1.339	-1.371	-3.811	-6.201	-8.801	-11.871	-15.391	-18.991	-21.941	-2.379
65535
-37.901	-37.031	-33.511	-27.451	-19.491	-10.541	-1.571	6.559	13.269	18.209	21.329	22.789	22.909	22.119	20.859	19.459	13.018
65535
2.762	1.602	0.592	-0.288	-1.018	-1.488	-1.618	-1.368	-0.768	0.032	0.812	1.312	1.322	0.722	-0.478	-2.128	-7.152
65535
16.142	14.142	12.112	10.032	7.822	5.422	2.912	0.432	-1.838	-3.798	-5.518	-7.178	-8.998	-11.158	-13.748	-16.778	-10.024
65535
-17.236	-20.576	-23.426	-25.096	-24.896	-22.306	-17.216	-10.046	-1.626	7.014	14.934	21.504	26.414	29.654	31.324	31.584	10.463
65535
10.157	8.317	5.947	3.477	1.277	-0.433	-1.643	-2.443	-2.983	-3.333	-3.473	-3.383	-3.113	-2.813	-2.693	-2.873	-6.599
65535
13.679	12.909	11.929	10.679	9.019	6.819	4.129	1.249	-1.461	-3.701	-5.501	-7.101	-8.931	-11.341	-14.421	-17.961	-7.943
65535
-20.157	-23.077	-24.737	-24.607	-22.337	-17.947	-11.807	-4.567	2.943	9.953	15.853	20.363	23.423	25.163	25.833	25.703	8.987
65535
8.103	7.123	5.993	4.793	3.543	2.223	0.803	-0.637	-2.027	-3.217	-4.087	-4.587	-4.717	-4.587	-4.387	-4.337	-9.970
65535
14.320	13.540	12.230	10.450	8.370	6.190	4.070	2.120	0.280	-1.590	-3.750	-6.400	-9.640	-13.320	-16.980	-19.890	0.923
65535
-32.113	-31.173	-27.693	-21.953	-14.713	-6.993	0.237	6.337	11.097	14.607	17.077	18.567	19.007	18.237	16.217	13.247	5.759
65535
5.051	2.001	-0.209	-1.369	-1.659	-1.459	-1.139	-0.859	-0.589	-0.209	0.281	0.751	0.941	0.611	-0.339	-1.799	-12.887
65535
15.077	13.207	11.367	9.587	7.847	6.107	4.337	2.537	0.707	-1.243	-3.463	-6.163	-9.453	-13.243	-17.063	-20.143	-1.104
65535
-33.376	-32.516	-29.156	-23.636	-16.696	-9.176	-1.786	4.984	10.804	15.454	18.704	20.464	20.814	20.014	18.494	16.604	7.238
65535
6.322	4.502	2.972	1.832	1.142	0.872	0.842	0.802	0.532	-0.048	-0.858	-1.768	-2.678	-3.618	-4.738	-6.108	-14.610
65535
14.160	12.520	11.020	9.720	8.500	7.100	5.290	3.000	0.350	-2.440	-5.220	-7.980	-10.730	-13.360	-15.490	-16.440	5.255
65535
-35.375	-32.115	-26.585	-19.355	-11.335	-3.475	3.505	9.205	13.495	16.375	17.845	17.935	16.665	14.235	11.105	7.875	6.464
65535
3.966	2.196	1.446	1.436	1.756	2.006	1.996	1.776	1.436	1.036	0.486	-0.414	-1.804	-3.654	-5.774	-7.884	-20.184
65535
16.874	15.224	13.684	12.064	10.214	8.114	5.834	3.444	0.904	-1.986	-5.426	-9.446	-13.686	-17.376	-19.446	-18.986	4.443
65535
-40.163	-33.933	-25.763	-16.763	-8.023	-0.283	6.047	10.877	14.217	16.117	16.647	15.967	14.387	12.287	10.117	8.257	10.832
65535
0.518	-0.332	-0.782	-1.002	-1.072	-0.902	-0.432	0.368	1.348	2.188	2.568	2.298	1.358	-0.132	-1.962	-4.032	-17.459
65535
21.989	19.489	16.789	13.949	11.079	8.269	5.529	2.779	-0.161	-3.401	-7.021	-10.981	-15.081	-18.861	-21.661	-22.711	4.768
65535
-43.598	-39.498	-32.838	-24.298	-14.898	-5.698	2.472	9.132	14.162	17.702	19.962	21.082	21.172	20.292	18.582	16.262	11.538
65535
6.852	4.212	1.842	-0.048	-1.338	-1.978	-2.008	-1.548	-0.808	-0.018	0.582	0.772	0.442	-0.518	-2.118	-4.318	-14.040
65535
18.590	15.650	12.650	9.810	7.200	4.820	2.580	0.450	-1.600	-3.520	-5.340	-7.190	-9.310	-11.880	-14.890	-18.020	-2.562
65535
-32.138	-33.538	-33.028	-30.188	-25.008	-17.848	-9.378	-0.448	8.082	15.502	21.302	25.322	27.632	28.492	28.202	27.042	14.572
65535
8.148	6.048	3.868	1.918	0.428	-0.492	-0.882	-0.952	-0.942	-1.052	-1.342	-1.762	-2.242	-2.782	-3.482	-4.482	-11.616
65535
20.276	18.406	16.126	13.566	10.796	7.806	4.616	1.256	-2.074	-5.184	-7.914	-10.304	-12.604	-15.164	-18.164	-21.444	-2.754
65535
-33.276	-35.056	-34.766	-31.836	-26.216	-18.366	-9.166	0.384	9.364	17.074	23.054	27.064	29.074	29.244	27.904	25.524	7.620
65535
12.220	9.130	6.110	3.350	0.930	-1.020	-2.420	-3.210	-3.470	-3.380	-3.120	-2.870	-2.750	-2.800	-3.080	-3.620	-12.235
65535
15.425	14.365	13.105	11.695	10.145	8.425	6.465	4.185	1.515	-1.595	-5.195	-9.205	-13.345	-17.025	-19.385	-19.575	9.219
65535
-38.459	-33.069	-25.409	-16.459	-7.329	0.981	7.831	12.941	16.251	17.801	17.691	16.061	13.221	9.621	5.841	2.491	5.741
65535
3.489	2.109	1.679	1.889	2.279	2.499	2.359	1.889	1.229	0.529	-0.161	-0.911	-1.941	-3.431	-5.481	-8.031	-26.786
65535
21.616	18.606	15.566	12.516	9.336	5.876	2.046	-2.174	-6.594	-10.814	-14.234	-16.124	-15.824	-12.904	-7.344	0.446	14.883
65535
-31.963	-22.143	-12.653	-4.183	2.767	7.917	11.137	12.477	12.177	10.567	8.117	5.317	2.607	0.397	-1.013	-1.523	11.748
65535
1.912	2.742	3.692	4.392	4.642	4.472	4.052	3.502	2.882	2.042	0.812	-1.008	-3.478	-6.548	-10.108	-14.008	-26.508
65535
20.118	15.858	11.558	7.258	2.918	-1.522	-6.062	-10.492	-14.302	-16.682	-16.792	-14.032	-8.292	-0.002	9.958	20.518	23.214
65535
-19.054	-10.084	-2.734	2.836	6.606	8.686	9.196	8.366	6.516	4.076	1.546	-0.674	-2.384	-3.574	-4.384	-4.944	11.266
65535
6.664	6.574	6.754	7.094	7.384	7.324	6.674	5.394	3.504	1.104	-1.716	-4.856	-8.196	-11.546	-14.676	-17.486	-25.691
65535
17.001	14.771	12.631	10.471	8.231	5.851	3.181	0.071	-3.559	-7.519	-11.279	-13.979	-14.719	-12.779	-7.909	-0.469	14.651
65535
-31.661	-21.911	-12.611	-4.551	1.889	6.629	9.749	11.389	11.669	10.729	8.809	6.269	3.609	1.299	-0.291	-1.011	13.801
65535
-0.061	0.639	1.679	2.839	3.929	4.779	5.249	5.189	4.519	3.229	1.389	-0.881	-3.501	-6.421	-9.611	-12.971	-22.415
65535
19.845	16.625	13.745	11.265	9.045	6.795	4.145	0.865	-3.065	-7.325	-11.345	-14.365	-15.645	-14.605	-11.005	-4.975	12.311
65535
-31.741	-22.651	-13.441	-5.031	1.879	6.909	10.069	11.559	11.709	10.779	9.019	6.659	4.049	1.629	-0.211	-1.181	10.709
65535
0.331	0.861	1.671	2.451	3.041	3.461	3.781	4.031	4.091	3.701	2.601	0.581	-2.309	-5.799	-9.499	-12.999	-21.859
65535
16.569	14.179	12.319	10.759	9.139	7.029	4.069	0.089	-4.721	-9.741	-13.991	-16.331	-15.851	-12.091	-5.261	3.829	16.294
65535
-24.174	-14.204	-5.484	1.346	6.056	8.726	9.646	9.176	7.686	5.576	3.256	1.086	-0.674	-1.934	-2.754	-3.324	9.844
65535
2.636	2.176	1.776	1.596	1.786	2.336	3.086	3.766	4.016	3.586	2.336	0.296	-2.394	-5.554	-8.984	-12.454	-24.823
65535
18.923	16.023	13.613	11.633	9.823	7.813	5.193	1.703	-2.637	-7.487	-12.117	-15.587	-16.937	-15.457	-10.887	-3.607	14.629
65535
-33.909	-24.029	-14.579	-6.389	0.101	4.851	8.041	9.991	10.951	11.071	10.421	9.051	7.061	4.701	2.331	0.331	12.477
65535
1.143	0.543	0.583	1.013	1.573	2.023	2.233	2.173	1.883	1.423	0.863	0.183	-0.757	-2.267	-4.627	-7.987	-24.737
65535
25.037	20.437	16.027	12.267	9.337	7.027	4.887	2.467	-0.513	-4.103	-8.103	-12.183	-15.843	-18.553	-19.653	-18.533	4.749
65535
-44.249	-37.779	-29.129	-19.279	-9.489	-0.949	5.551	9.821	12.241	13.491	14.281	15.091	16.091	17.201	18.191	18.911	33.766
65535
-9.696	-9.476	-9.256	-8.796	-7.896	-6.426	-4.386	-1.946	0.674	3.204	5.404	7.144	8.504	9.664	10.884	12.394	55.399
65535
-7.399	-5.329	-3.169	-1.019	1.201	3.731	6.851	10.721	15.091	19.081	21.101	19.041	10.761	-5.109	-28.419	-57.139	-36.643
65535
4.443	-23.367	-44.547	-56.517	-58.547	-51.557	-37.627	-19.477	0.023	18.183	32.903	43.013	48.403	49.893	48.713	46.063	-15.531
65535
21.691	18.351	15.301	12.801	10.971	9.551	7.901	5.191	0.991	-4.429	-10.099	-14.779	-17.609	-18.579	-18.529	-18.719	-68.176
65535
32.386	28.956	23.826	17.636	11.146	4.966	-0.514	-5.124	-8.754	-11.424	-13.254	-14.474	-15.384	-16.174	-16.804	-17.004	-41.566
65535
-42.904	-40.804	-36.984	-31.354	-24.104	-15.664	-6.644	2.256	10.336	17.046	22.116	25.596	27.816	29.346	30.856	33.096	94.389
65535
-99.129	-93.069	-83.869	-70.859	-53.809	-33.169	-10.249	12.951	34.091	51.131	62.651	68.031	67.351	61.181	50.431	36.331	33.166
65535
81.634	65.584	50.914	38.554	28.534	20.084	12.004	3.154	-6.996	-18.216	-29.636	-39.956	-47.916	-52.606	-53.676	-51.466	-4.199
65535
-9.501	-3.681	2.219	7.289	10.969	12.979	13.239	11.799	8.899	4.889	0.299	-4.361	-8.671	-12.411	-15.601	-18.361	-25.055
65535
0.045	-2.145	-4.015	-5.425	-6.225	-6.315	-5.715	-4.485	-2.775	-0.755	1.435	3.655	5.805	7.725	9.195	9.995	-13.573
65535
-1.647	-2.927	-5.337	-8.597	-12.177	-15.317	-17.177	-17.057	-14.497	-9.467	-2.397	5.923	14.523	22.503	29.233	34.413	17.261
65535
7.229	9.519	10.659	10.789	9.969	8.269	5.799	2.789	-0.381	-3.391	-6.001	-8.111	-9.791	-11.201	-12.471	-13.681	-19.051
65535
21.451	20.271	19.001	17.461	15.481	12.901	9.801	6.251	2.331	-2.029	-6.979	-12.609	-18.669	-24.469	-28.989	-31.199	-9.792
65535
-39.708	-35.958	-29.778	-22.048	-13.648	-5.248	2.742	9.992	16.122	20.592	22.882	22.702	20.132	15.742	10.402	5.082	-19.799
65535
10.549	7.299	5.429	4.809	5.029	5.579	5.889	5.479	4.039	1.499	-1.841	-5.491	-8.861	-11.521	-13.341	-14.551	-31.989
65535
-3.481	-5.071	-7.501	-10.761	-14.341	-17.401	-19.011	-18.451	-15.371	-9.871	-2.381	6.459	15.969	25.429	34.179	41.599	10.473
65535
4.767	8.367	10.057	10.197	9.307	7.837	5.977	3.687	0.817	-2.593	-6.183	-9.313	-11.303	-11.773	-10.833	-9.023	-1.633
65535
5.033	6.533	7.303	7.333	6.703	5.453	3.553	0.983	-2.117	-5.387	-8.227	-9.927	-9.877	-7.647	-3.127	3.423	38.928
65535
-29.088	-20.268	-11.408	-3.178	3.972	9.742	13.932	16.362	16.852	15.302	11.802	6.762	0.812	-5.308	-10.878	-15.408	18.539
65535
1.671	-0.459	-1.649	-2.199	-2.369	-2.319	-2.069	-1.519	-0.559	0.801	2.331	3.581	3.971	3.051	0.661	-2.919	32.589
65535
-21.119	-24.939	-27.529	-28.169	-26.419	-22.249	-15.989	-8.289	0.041	8.211	15.631	21.991	27.211	31.311	34.291	36.021	37.618
65535
31.262	29.902	26.922	22.582	17.382	11.862	6.482	1.472	-3.208	-7.758	-12.358	-16.998	-21.498	-25.568	-28.938	-31.538	-17.404
65535
21.464	19.624	17.474	14.594	10.734	5.904	0.354	-5.456	-10.926	-15.336	-17.996	-18.266	-15.756	-10.426	-2.676	6.694	8.058
65535
-8.828	0.582	8.602	14.632	18.412	19.852	18.942	15.792	10.692	4.182	-2.948	-9.898	-16.028	-21.048	-24.958	-27.988	-38.606
65535
16.346	14.596	13.336	12.376	11.356	9.726	7.046	3.206	-1.514	-6.464	-10.864	-14.054	-15.674	-15.574	-13.734	-10.114	-2.258
65535
-41.062	-33.962	-25.572	-16.582	-7.872	-0.222	5.848	10.198	12.958	14.388	14.788	14.438	13.668	12.928	12.708	13.348	-4.884
65535
17.554	19.644	21.404	21.814	20.034	15.754	9.394	2.014	-5.086	-10.766	-14.476	-16.406	-17.366	-18.446	-20.626	-24.436	-19.028
65535
-15.612	-21.812	-27.852	-32.572	-34.952	-34.202	-29.942	-22.182	-11.442	1.318	14.778	27.488	38.168	45.948	50.568	52.308	27.353
65535
5.507	3.867	1.977	0.687	0.627	2.067	4.847	8.297	11.387	12.867	11.657	7.097	-0.793	-11.323	-23.333	-35.443	-21.661
65535
2.621	-6.229	-12.369	-15.589	-15.899	-13.639	-9.399	-4.029	1.471	6.201	9.581	11.461	12.101	11.931	11.341	10.441	-13.135
65535
0.655	-1.105	-3.345	-5.775	-7.835	-8.985	-8.785	-7.155	-4.385	-1.005	2.395	5.385	7.775	9.565	10.885	11.715	-21.434
65535
20.144	19.214	16.784	12.614	6.804	-0.106	-7.236	-13.526	-17.926	-19.676	-18.426	-14.306	-7.906	-0.096	8.054	15.584	-7.136
65535
7.306	11.256	12.836	12.106	9.446	5.486	1.006	-3.234	-6.634	-8.854	-9.824	-9.654	-8.554	-6.724	-4.364	-1.594	-5.033
65535
-0.707	2.333	5.073	7.063	7.753	6.613	3.443	-1.437	-7.037	-11.917	-14.497	-13.637	-9.007	-1.187	8.533	18.623	18.717
65535
3.943	11.053	15.773	17.963	17.733	15.313	11.073	5.633	-0.217	-5.667	-10.127	-13.367	-15.497	-16.857	-17.877	-18.877	-9.117
65535
7.747	6.237	4.497	2.727	1.197	0.147	-0.413	-0.723	-1.203	-2.223	-3.783	-5.363	-6.083	-5.043	-1.673	3.957	15.581
65535
-13.501	-5.671	1.749	7.949	12.469	15.089	15.739	14.419	11.309	6.739	1.279	-4.431	-9.761	-14.341	-18.061	-20.981	-13.148
65535
5.518	3.948	3.128	3.128	3.878	5.058	6.198	6.748	6.248	4.428	1.288	-2.872	-7.432	-11.472	-13.932	-13.862	9.507
65535
-33.357	-27.237	-18.887	-9.517	-0.397	7.423	13.293	16.923	18.243	17.363	14.493	10.113	4.913	-0.317	-4.837	-8.217	-3.094
65535
2.234	1.134	0.764	0.844	1.184	1.704	2.324	2.994	3.554	3.794	3.394	2.024	-0.526	-4.226	-8.556	-12.636	5.317
65535
-23.797	-24.257	-21.927	-16.927	-9.947	-2.027	5.723	12.303	16.953	19.213	18.883	16.133	11.403	5.463	-0.777	-6.417	-6.340
65535
0.850	-2.010	-3.400	-3.710	-3.420	-2.900	-2.340	-1.740	-0.980	0.060	1.340	2.700	3.820	4.380	4.150	3.200	26.273
65535
-30.823	-32.063	-32.423	-31.163	-27.703	-21.833	-13.783	-4.213	5.917	15.467	23.487	29.207	32.177	32.297	29.877	25.567	54.980
65535
-8.370	-13.420	-17.250	-19.110	-18.740	-16.320	-12.350	-7.440	-2.110	3.270	8.480	13.380	17.830	21.610	24.440	26.100	106.146
65535
-24.596	-24.996	-25.516	-25.106	-22.646	-17.266	-8.736	2.354	14.514	25.644	33.474	36.064	32.144	21.244	3.574	-20.146	-113.772
65535
171.052	138.722	104.502	70.392	38.452	10.402	-12.738	-30.718	-44.018	-53.498	-60.078	-64.468	-67.068	-68.018	-67.408	-65.508	-133.054
65535
-43.726	-41.726	-41.286	-42.786	-45.366	-46.936	-44.776	-36.596	-21.606	-0.946	22.574	45.364	63.974	75.994	80.364	77.484	-175.111
65535
111.001	99.001	85.691	72.381	59.141	44.861	27.971	7.361	-16.779	-42.569	-66.709	-85.059	-93.589	-89.439	-71.649	-41.609	165.602
65535
-343.322	-299.382	-253.652	-207.202	-158.942	-106.852	-50.012	9.898	68.538	120.338	160.878	188.688	205.558	215.318	221.988	228.158	260.261
65535
140.009	146.259	151.069	153.019	150.389	140.929	122.079	91.679	49.209	-3.481	-62.201	-121.511	-176.321	-223.451	-262.431	-295.241	-259.799
65535
194.949	164.909	132.919	98.959	64.459	31.569	2.209	-22.531	-42.621	-58.911	-72.641	-84.831	-95.661	-103.951	-107.141	-101.691	-2.038
65535
-341.832	-309.762	-263.312	-205.382	-141.182	-76.882	-17.892	32.518	73.768	107.468	136.138	161.888	185.448	206.048	221.898	231.068	95.102
65535
135.048	127.768	112.748	91.648	66.728	40.498	15.288	-7.252	-26.422	-42.502	-56.372	-69.092	-81.252	-92.822	-103.092	-110.922	17.709
65535
-37.669	-36.979	-30.739	-18.919	-2.599	15.891	33.251	45.891	51.001	47.411	35.901	18.771	-1.119	-21.359	-40.509	-58.229	-247.500
65535
190.300	173.940	156.880	137.660	114.420	85.030	47.980	3.420	-45.880	-94.310	-134.430	-158.950	-162.860	-145.090	-108.700	-59.410	107.279
65535
-358.309	-300.639	-243.369	-186.159	-127.269	-65.169	-0.139	64.781	123.821	169.871	196.671	201.131	184.641	152.811	113.441	73.891	47.463
65535
98.907	70.747	48.977	32.537	20.547	12.277	6.637	1.817	-4.493	-13.973	-26.733	-40.773	-52.543	-58.063	-54.543	-41.323	141.550
65535
-114.300	-88.730	-62.680	-39.280	-20.040	-4.880	7.310	17.820	27.330	35.640	41.960	45.380	45.400	42.260	36.770	30.040	65.591
65535
98.809	91.349	83.089	73.129	60.729	45.709	28.579	10.349	-7.891	-25.271	-41.291	-55.881	-69.381	-82.561	-96.641	-112.821	-43.799
65535
-22.301	-43.041	-63.151	-78.861	-86.361	-83.161	-69.081	-46.291	-18.471	10.449	37.389	60.729	80.119	95.899	108.449	117.689	-48.511
65535
127.661	127.881	122.131	110.001	91.901	69.021	42.931	15.171	-13.009	-40.599	-66.679	-90.129	-109.619	-123.729	-131.289	-131.639	-146.402
65535
-27.048	-14.478	1.882	19.282	34.872	46.252	51.912	51.342	44.782	32.892	16.452	-3.738	-26.688	-51.258	-76.158	-100.298	-354.128
65535
84.618	62.958	41.588	19.318	-4.732	-30.502	-56.452	-79.392	-94.852	-98.172	-85.872	-56.842	-12.802	42.228	103.218	165.698	212.265
65535
-339.585	-280.855	-224.085	-168.215	-112.295	-56.055	-0.375	52.575	99.565	136.965	161.705	172.295	169.225	154.635	131.555	102.945	134.071
65535
149.439	116.529	84.009	53.429	26.239	3.509	-14.401	-27.831	-37.551	-44.431	-49.121	-52.031	-53.311	-53.081	-51.671	-49.721	37.618
65535
48.162	47.772	44.332	37.182	26.532	13.532	0.052	-11.968	-21.068	-26.678	-29.118	-29.288	-28.118	-26.238	-23.898	-21.188	7.590
65535
11.640	13.990	15.170	14.620	12.190	8.320	3.770	-0.730	-4.760	-8.180	-10.930	-12.850	-13.570	-12.650	-9.990	-6.040	-8.909
65535
14.729	18.119	19.589	18.609	15.269	10.049	3.569	-3.521	-10.571	-16.701	-20.781	-21.711	-18.811	-12.251	-3.011	7.419	38.179
65535
-29.389	-20.049	-11.729	-4.199	2.581	8.171	11.731	12.591	10.701	6.931	2.791	-0.229	-1.239	-0.009	3.211	8.131	88.969
65535
-36.079	-27.659	-17.299	-5.359	7.211	18.951	28.121	33.121	32.881	27.261	17.111	4.251	-8.929	-19.929	-26.549	-27.109	113.026
65535
-44.576	-30.496	-9.596	16.274	43.854	68.964	87.254	95.254	91.084	74.524	46.694	9.444	-35.186	-85.016	-137.726	-190.746	-345.427
65535
216.967	170.657	129.977	94.917	64.537	37.547	12.897	-9.963	-31.333	-51.503	-70.873	-89.483	-106.493	-119.703	-125.963	-122.183	-116.234
65535
-335.666	-308.176	-270.986	-227.216	-179.926	-131.206	-81.936	-32.076	18.964	71.694	125.944	180.514	232.804	279.304	316.404	341.564	172.140
65535
65.810	67.360	60.710	49.150	35.400	21.280	7.910	-4.010	-13.960	-21.750	-27.770	-33.040	-38.890	-46.330	-55.630	-66.240	41.052
65535
54.008	43.918	35.008	26.968	18.978	10.088	-0.222	-11.642	-22.912	-32.112	-37.232	-36.862	-30.722	-19.762	-5.942	8.438	50.005
65535
12.335	22.195	28.345	30.675	29.435	25.065	18.245	9.745	0.425	-8.835	-17.195	-24.005	-28.885	-31.745	-32.885	-32.915	0.293
65535
17.167	17.337	17.027	16.307	15.367	14.267	12.857	10.657	7.197	2.187	-4.263	-11.753	-19.563	-26.793	-32.473	-35.523	22.550
65535
-57.220	-52.360	-43.130	-30.260	-15.220	0.040	13.640	24.160	30.800	33.370	32.160	27.770	21.020	12.950	4.750	-2.470	5.468
65535
9.162	5.762	4.132	3.622	3.532	3.382	3.022	2.532	1.972	1.322	0.392	-1.118	-3.428	-6.728	-11.078	-16.488	4.583
65535
-21.863	-28.483	-34.493	-38.603	-39.513	-36.273	-28.773	-17.773	-4.673	8.977	21.807	32.857	41.487	47.187	49.587	48.547	17.257
65535
31.643	25.053	17.273	9.583	3.093	-1.607	-4.477	-5.877	-6.407	-6.677	-7.107	-7.907	-9.097	-10.627	-12.397	-14.467	-10.858
65535
11.078	7.688	3.128	-2.742	-9.672	-16.872	-23.052	-26.752	-26.732	-22.362	-13.842	-2.112	11.428	25.198	37.748	47.878	21.148
65535
22.762	25.982	25.482	21.692	15.442	7.832	0.132	-6.508	-11.308	-13.988	-14.868	-14.628	-14.098	-13.948	-14.468	-15.518	-14.340
65535
18.770	17.830	17.300	16.940	16.150	14.180	10.370	4.480	-3.060	-11.200	-18.420	-23.130	-24.080	-20.670	-13.120	-2.340	24.996
65535
-28.986	-15.836	-3.516	6.974	14.964	20.034	21.974	20.784	16.794	10.684	3.414	-3.906	-10.306	-15.166	-18.226	-19.676	-1.658
65535
6.758	7.288	8.088	8.818	9.248	9.308	8.938	8.098	6.598	4.198	0.658	-4.112	-9.922	-16.162	-21.872	-25.922	13.073
65535
-41.943	-39.683	-33.663	-24.383	-12.953	-0.913	10.137	18.937	24.737	27.277	26.667	23.197	17.347	9.817	1.597	-6.173	-2.619
65535
3.329	-0.591	-2.141	-1.771	-0.291	1.519	3.099	4.179	4.729	4.719	4.049	2.609	0.229	-3.171	-7.601	-12.901	-0.403
65535
-20.957	-26.797	-31.787	-34.847	-34.957	-31.387	-24.087	-13.697	-1.487	11.053	22.513	31.733	37.943	40.723	39.983	36.053	7.728
65535
21.552	13.892	6.292	-0.038	-4.318	-6.358	-6.488	-5.398	-3.788	-2.258	-1.158	-0.638	-0.738	-1.538	-3.178	-5.848	-14.311
65535
12.341	7.301	1.221	-5.519	-12.349	-18.439	-22.839	-24.529	-22.739	-17.239	-8.499	2.311	13.681	24.121	32.601	38.581	7.370
65535
20.260	21.080	19.500	15.820	10.520	4.420	-1.560	-6.530	-9.970	-11.770	-12.190	-11.700	-10.760	-9.760	-8.930	-8.430	-9.703
65535
8.753	8.453	7.663	6.223	3.883	0.473	-3.927	-8.747	-13.017	-15.547	-15.337	-11.907	-5.447	3.223	12.913	22.353	11.426
65535
9.304	15.184	18.354	18.674	16.364	12.034	6.504	0.714	-4.606	-8.956	-12.126	-14.076	-14.926	-14.876	-14.226	-13.346	-13.869
65535
12.689	12.999	12.769	12.009	10.809	9.149	6.819	3.529	-0.921	-6.291	-11.761	-16.051	-17.791	-15.961	-10.351	-1.651	9.233
65535
-14.333	-3.793	5.467	12.497	16.837	18.367	17.167	13.577	8.177	1.857	-4.413	-9.773	-13.623	-15.803	-16.433	-15.783	-7.946
65535
2.986	5.146	7.486	9.566	10.986	11.466	10.906	9.276	6.566	2.706	-2.194	-7.774	-13.224	-17.384	-19.064	-17.454	5.549
65535
-26.049	-18.569	-9.779	-1.069	6.491	12.231	15.881	17.341	16.621	13.811	9.221	3.441	-2.699	-8.339	-12.789	-15.739	-11.823
65535
0.133	-0.227	0.233	1.273	2.713	4.303	5.763	6.703	6.823	5.883	3.823	0.723	-3.257	-7.737	-12.027	-15.127	2.597
65535
-30.367	-28.047	-22.407	-14.127	-4.627	4.413	11.543	15.973	17.633	16.943	14.553	11.093	7.123	3.193	-0.207	-2.687	-8.564
65535
7.084	6.674	6.904	7.304	7.534	7.404	6.844	5.864	4.444	2.484	-0.186	-3.656	-7.906	-12.666	-17.276	-20.846	5.343
65535
-36.223	-34.713	-29.903	-22.133	-12.403	-2.103	7.437	15.167	20.437	23.007	22.877	20.317	15.767	9.997	3.927	-1.453	-2.149
65535
2.149	0.189	0.069	1.269	3.069	4.719	5.759	6.039	5.669	4.809	3.479	1.449	-1.671	-6.191	-12.071	-18.741	-3.655
65535
-23.735	-28.865	-31.555	-31.165	-27.545	-21.095	-12.545	-2.855	6.945	15.825	22.915	27.555	29.455	28.735	25.945	21.985	10.977
65535
3.283	0.063	-1.657	-1.757	-0.597	1.143	2.713	3.593	3.613	2.913	1.793	0.483	-0.937	-2.597	-4.677	-7.377	-3.871
65535
4.041	-0.169	-5.039	-10.229	-15.059	-18.619	-19.969	-18.409	-13.859	-6.909	1.341	9.641	16.921	22.521	26.121	27.681	9.423
65535
14.017	11.947	8.587	4.537	0.527	-2.823	-5.033	-5.963	-5.713	-4.643	-3.213	-1.953	-1.303	-1.543	-2.733	-4.703	-14.647
65535
16.917	14.337	11.867	9.527	7.187	4.557	1.397	-2.443	-6.733	-10.913	-14.053	-15.193	-13.523	-8.833	-1.523	7.427	12.777
65535
-10.667	-2.097	4.873	9.753	12.433	12.993	11.603	8.573	4.393	-0.267	-4.617	-7.967	-9.907	-10.407	-9.867	-8.827	-3.831
65535
8.801	9.481	9.731	9.611	9.121	8.221	6.801	4.841	2.421	-0.299	-3.139	-6.119	-9.339	-12.919	-16.779	-20.429	4.843
65535
-31.743	-32.453	-30.493	-25.623	-18.233	-9.223	0.257	9.057	16.257	21.247	23.687	23.527	20.987	16.587	11.027	5.127	-1.534
65535
6.054	1.664	-1.316	-2.776	-2.836	-1.796	-0.126	1.604	2.884	3.294	2.734	1.384	-0.346	-2.056	-3.536	-4.836	-15.924
65535
8.154	6.324	3.804	0.534	-3.296	-7.356	-11.146	-14.006	-15.266	-14.286	-10.746	-4.736	3.084	11.724	20.054	27.154	7.256
65535
9.224	12.404	13.524	12.764	10.384	6.784	2.514	-1.776	-5.466	-8.106	-9.526	-9.816	-9.326	-8.476	-7.716	-7.396	-12.022
65535
11.622	10.822	9.722	8.612	7.592	6.642	5.532	4.022	1.922	-0.808	-4.068	-7.638	-11.098	-13.828	-15.048	-13.998	6.383
65535
-28.673	-22.373	-14.303	-5.633	2.367	8.727	12.897	14.847	14.807	13.157	10.297	6.597	2.487	-1.643	-5.353	-8.203	-4.339
65535
0.869	0.549	1.399	2.909	4.369	5.169	4.989	3.939	2.399	0.859	-0.451	-1.641	-2.991	-4.831	-7.291	-10.241	-8.117
65535
-9.733	-13.083	-16.323	-19.143	-21.043	-21.313	-19.303	-14.693	-7.733	0.797	9.717	17.847	24.277	28.537	30.587	30.607	7.079
65535
13.811	11.001	7.451	3.641	0.081	-2.759	-4.509	-4.999	-4.419	-3.199	-1.909	-1.099	-1.099	-2.029	-3.799	-6.169	-16.491
65535
14.701	11.931	9.301	6.921	4.721	2.451	-0.149	-3.239	-6.689	-9.959	-12.209	-12.559	-10.409	-5.669	1.271	9.591	11.273
65535
-9.413	-1.143	5.877	11.067	14.057	14.727	13.157	9.747	5.137	0.097	-4.633	-8.513	-11.213	-12.733	-13.233	-12.983	-5.418
65535
4.418	5.308	6.108	6.558	6.488	5.868	4.798	3.508	2.188	0.918	-0.452	-2.242	-4.782	-8.342	-12.772	-17.562	-3.039
65535
-24.231	-26.981	-27.341	-24.881	-19.721	-12.551	-4.371	3.719	10.799	16.219	19.689	21.149	20.759	18.899	16.059	12.789	3.581
65535
2.999	0.349	-1.501	-2.381	-2.251	-1.191	0.499	2.369	3.839	4.449	3.989	2.519	0.409	-2.041	-4.631	-7.431	-16.989
65535
9.949	6.159	1.669	-3.371	-8.581	-13.361	-16.951	-18.561	-17.581	-13.841	-7.611	0.339	9.009	17.419	24.779	30.529	5.314
65535
12.026	13.646	13.066	10.486	6.456	1.776	-2.644	-5.994	-7.874	-8.294	-7.594	-6.354	-5.134	-4.374	-4.284	-4.914	-17.949
65535
17.149	15.609	13.929	12.159	10.169	7.649	4.279	-0.031	-5.011	-9.981	-14.021	-16.201	-15.861	-12.801	-7.251	0.219	10.528
65535
-19.668	-10.828	-2.538	4.482	9.692	12.772	13.622	12.452	9.662	5.802	1.502	-2.608	-6.038	-8.428	-9.748	-10.138	-11.129
65535
11.649	11.859	11.769	11.179	10.079	8.609	6.899	5.039	2.899	0.299	-2.981	-7.031	-11.641	-16.281	-20.131	-22.221	5.680
65535
-38.460	-34.770	-28.100	-19.190	-9.220	0.560	9.050	15.550	19.670	21.310	20.590	17.830	13.560	8.540	3.590	-0.510	-1.949
65535
4.319	2.919	2.649	3.009	3.519	3.809	3.729	3.299	2.599	1.689	0.559	-0.961	-3.031	-5.771	-9.201	-13.141	-1.292
65535
-17.868	-21.508	-24.018	-24.728	-23.138	-19.098	-12.898	-5.218	3.032	10.882	17.512	22.312	24.952	25.402	23.802	20.582	7.896
65535
7.194	2.814	-0.886	-3.236	-3.916	-3.096	-1.356	0.504	1.804	2.194	1.804	1.014	0.194	-0.536	-1.466	-3.036	-5.442
65535
7.692	3.892	-0.898	-6.218	-11.408	-15.698	-18.308	-18.518	-15.918	-10.608	-3.278	4.952	12.872	19.532	24.432	27.482	8.773
65535
14.557	14.167	12.217	8.897	4.687	0.277	-3.563	-6.263	-7.623	-7.813	-7.243	-6.303	-5.293	-4.323	-3.483	-2.893	-6.043
65535
12.103	11.623	10.293	7.973	4.683	0.543	-4.107	-8.717	-12.537	-14.687	-14.447	-11.497	-6.097	0.963	8.503	15.413	8.885
65535
5.955	9.585	11.325	11.245	9.505	6.265	1.915	-2.865	-7.195	-10.175	-11.205	-10.265	-7.855	-4.805	-1.875	0.445	-0.455
65535
11.375	12.315	12.665	12.255	10.805	8.055	4.025	-0.895	-6.015	-10.485	-13.555	-14.645	-13.475	-10.055	-4.645	2.275	29.354
65535
-19.694	-11.504	-3.514	3.806	9.916	14.296	16.476	16.126	13.306	8.436	2.346	-3.894	-9.104	-12.344	-13.104	-11.544	18.581
65535
2.299	5.699	8.349	9.589	9.499	8.689	7.979	7.859	8.199	8.199	6.589	2.239	-5.361	-15.651	-27.011	-37.161	-12.178
65535
-13.122	-14.982	-11.912	-5.052	3.608	11.958	18.388	21.968	22.448	19.858	14.418	6.478	-3.322	-13.992	-24.202	-32.542	-43.972
65535
-6.118	-8.028	-6.718	-3.128	1.482	5.832	9.072	10.762	10.922	9.682	7.282	3.852	-0.458	-5.528	-11.278	-17.628	-54.023
65535
-14.407	-21.417	-27.977	-32.987	-35.087	-33.107	-26.577	-16.107	-3.277	9.803	21.253	29.863	35.343	38.063	38.703	37.913	8.216
65535
-25.956	-27.886	-29.406	-29.696	-28.066	-24.216	-18.416	-11.336	-3.706	3.944	11.434	18.954	26.864	35.534	45.364	56.594	100.956
65535
-23.496	-9.866	3.764	15.864	24.664	28.724	27.414	21.274	11.934	1.604	-7.616	-14.376	-18.356	-20.116	-20.656	-20.756	90.814
65535
-10.494	-9.814	-7.984	-4.704	-0.244	4.376	7.766	8.616	6.256	1.126	-5.174	-10.104	-10.784	-4.934	8.286	27.806	29.208
65535
112.022	133.052	147.332	150.432	139.892	115.762	80.742	39.212	-3.908	-44.548	-80.368	-110.868	-136.918	-159.858	-180.958	-201.018	-225.326
65535
34.006	14.756	-4.294	-22.654	-39.044	-51.464	-57.804	-56.624	-47.844	-32.724	-13.394	8.206	30.886	54.396	78.976	104.626	21.281
65535
-115.941	-90.841	-68.211	-49.181	-34.021	-22.161	-12.491	-3.781	5.049	14.879	26.329	39.709	54.839	70.869	86.189	98.769	91.065
65535
36.895	38.985	35.315	27.205	16.795	6.275	-2.765	-9.685	-14.655	-18.155	-20.625	-22.075	-22.195	-20.665	-17.485	-13.165	70.914
65535
11.536	15.276	17.356	17.266	14.896	10.456	4.416	-2.444	-9.004	-13.984	-16.304	-15.554	-12.394	-8.534	-6.124	-6.854	36.567
65535
23.123	16.043	8.183	1.483	-2.837	-4.707	-4.997	-4.907	-5.387	-6.687	-8.307	-9.157	-8.087	-4.377	1.713	8.903	-62.163
65535
113.983	117.453	116.623	110.853	100.013	83.943	62.243	34.583	1.553	-34.747	-70.577	-101.587	-124.187	-136.657	-139.367	-134.117	-135.733
65535
-49.647	-35.267	-19.457	-4.527	6.973	12.813	12.143	6.253	-1.537	-7.137	-7.437	-1.597	8.613	19.773	28.293	31.753	-124.993
65535
18.683	11.363	0.643	-11.667	-23.787	-34.027	-40.687	-42.187	-37.367	-26.087	-9.487	9.913	28.803	44.053	53.823	58.023	77.304
65535
-144.014	-145.174	-145.154	-141.774	-133.424	-118.894	-97.054	-67.034	-28.664	16.866	66.646	116.356	161.276	197.616	223.456	238.966	272.828
65535
50.222	50.322	45.422	36.742	25.472	13.382	2.912	-3.538	-4.938	-2.628	-0.228	-2.418	-13.098	-33.868	-63.708	-100.058	-129.209
65535
261.779	219.149	174.179	126.599	77.149	28.279	-16.151	-52.311	-77.981	-93.451	-101.101	-104.261	-105.921	-108.031	-111.471	-116.451	-259.050
65535
7.120	0.250	-5.990	-10.110	-10.850	-7.930	-2.220	4.460	10.120	13.230	13.070	9.700	3.860	-3.150	-9.350	-12.210	23.079
65535
-291.099	-279.289	-257.319	-224.859	-182.869	-133.329	-78.769	-21.819	34.901	89.011	138.451	181.691	218.021	247.551	270.941	288.781	196.276
65535
127.734	133.154	130.294	118.184	97.444	70.794	42.374	16.214	-5.546	-23.446	-40.596	-61.346	-89.476	-126.586	-171.076	-218.116	0.931
65535
-65.421	-96.771	-112.371	-111.911	-99.301	-80.721	-61.641	-44.071	-25.991	-2.981	28.419	67.859	110.169	147.149	170.819	176.759	-38.184
65535
204.654	181.044	151.424	121.014	92.034	63.824	34.284	1.904	-32.886	-67.506	-98.186	-121.366	-134.926	-138.666	-133.906	-122.736	-140.230
65535
-5.230	12.680	31.270	48.430	61.570	68.040	65.910	54.780	35.980	12.120	-13.830	-39.270	-62.150	-80.670	-92.880	-96.750	10.961
65535
-242.071	-226.541	-203.221	-175.131	-145.041	-114.141	-81.611	-45.361	-3.481	44.139	95.379	146.289	192.329	229.769	256.519	272.179	115.779
65535
172.801	169.271	158.011	140.141	117.021	90.361	62.221	34.371	7.521	-19.109	-47.749	-81.389	-122.529	-171.799	-226.879	-282.269	-5.396
65535
-209.074	-241.614	-252.794	-240.514	-206.874	-156.934	-96.674	-31.144	35.936	101.276	160.616	208.356	238.586	247.536	235.596	207.716	-60.119
65535
226.379	189.609	156.579	127.529	99.569	68.789	32.739	-8.151	-50.631	-89.701	-120.301	-138.781	-143.801	-136.341	-118.921	-94.571	65.197
65535
-191.267	-160.507	-129.617	-100.847	-76.447	-57.827	-44.377	-32.887	-18.437	3.733	35.913	76.663	121.143	162.833	195.783	216.143	130.619
65535
157.091	149.981	130.851	101.751	65.371	25.301	-14.099	-48.259	-73.499	-87.869	-91.499	-86.259	-75.149	-61.669	-49.559	-42.489	-10.311
65535
97.221	85.611	63.441	32.941	-1.459	-33.939	-58.719	-71.569	-70.899	-58.239	-37.749	-15.009	4.641	17.671	23.181	22.871	2.769
65535
6.791	4.401	4.731	8.151	13.661	19.641	24.571	27.431	27.451	23.911	16.001	3.201	-14.179	-34.649	-55.859	-75.249	-109.133
65535
20.833	9.003	0.263	-6.987	-14.197	-21.917	-29.487	-35.117	-36.467	-31.607	-19.897	-2.647	17.163	35.983	51.423	63.663	194.681
65535
-228.281	-212.251	-187.811	-152.851	-108.041	-56.611	-3.211	47.189	90.069	121.779	139.869	143.549	134.099	114.929	90.859	66.719	43.209
65535
197.251	180.221	165.271	148.961	127.801	99.601	64.301	23.921	-18.169	-58.399	-94.039	-123.929	-148.419	-169.129	-188.089	-207.149	-239.696
65535
55.536	34.146	12.606	-7.354	-23.624	-34.234	-37.834	-34.084	-24.054	-10.214	3.966	14.786	19.486	17.396	10.476	2.996	-273.817
65535
34.367	40.497	56.507	79.237	101.947	116.277	114.917	94.017	54.437	1.887	-54.473	-104.163	-137.923	-149.953	-139.073	-108.503	-38.476
65535
-299.684	-248.754	-196.854	-147.794	-103.474	-64.274	-29.414	3.026	35.646	70.636	108.076	144.856	174.876	191.326	190.006	171.796	123.750
65535
-19.140	-48.530	-68.910	-74.170	-63.300	-39.820	-9.640	21.140	47.680	66.500	75.050	71.440	55.050	27.790	-5.170	-35.970	51.989
65535
15.221	9.841	18.901	35.741	50.261	53.221	40.451	14.691	-15.769	-40.849	-53.169	-50.889	-37.919	-21.779	-10.139	-7.809	20.962
65535
15.488	0.648	-16.502	-31.542	-41.952	-47.612	-49.922	-50.222	-48.332	-42.032	-27.912	-3.452	30.808	70.258	107.398	134.878	199.963
65535
-29.993	-27.343	-29.533	-28.413	-18.293	1.617	27.167	51.567	68.387	73.587	65.897	45.847	14.757	-25.423	-71.503	-118.333	114.048
65535
-73.248	-101.438	-112.858	-107.428	-88.968	-63.348	-35.818	-9.008	17.092	43.412	69.692	92.882	107.742	108.722	92.602	59.962	-109.879
65535
239.069	188.629	139.419	96.839	63.929	41.219	26.929	17.279	7.199	-8.661	-34.181	-70.211	-113.931	-159.641	-200.941	-232.951	-315.018
65535
-48.442	-58.262	-59.272	-53.692	-43.392	-30.092	-15.852	-2.972	6.778	13.258	18.268	24.688	35.118	50.578	70.338	92.958	65.515
65535
-263.045	-236.325	-206.325	-172.075	-133.755	-92.835	-51.725	-12.595	23.435	56.825	89.255	122.905	159.335	198.705	239.465	278.755	288.008
65535
90.702	117.142	133.132	137.152	128.682	108.552	79.142	44.112	7.312	-28.388	-61.798	-93.298	-123.728	-153.228	-180.778	-204.718	-34.278
65535
98.638	85.048	75.858	69.208	62.558	53.078	38.048	15.858	-12.792	-44.142	-72.152	-90.522	-95.102	-85.292	-63.742	-34.552	82.826
65535
-118.536	-84.226	-51.196	-22.576	-2.136	7.234	5.594	-2.836	-10.726	-10.606	1.534	24.094	50.204	70.584	77.254	66.334	-54.681
65535
176.371	137.061	91.961	46.581	4.991	-29.959	-56.049	-71.569	-75.749	-69.549	-55.909	-39.269	-24.219	-14.029	-9.829	-10.829	-170.636
65535
100.596	93.846	85.166	73.926	59.406	41.686	22.006	2.326	-15.464	-30.434	-42.814	-53.824	-64.934	-77.214	-90.614	-103.664	-125.216
65535
-158.904	-161.644	-153.654	-132.764	-99.674	-58.474	-15.794	21.356	48.216	64.186	72.866	80.246	91.736	109.826	133.396	159.086	170.441
65535
-112.111	-90.351	-70.331	-49.901	-27.451	-3.371	19.929	39.219	52.009	57.549	56.719	51.009	41.469	28.539	12.549	-5.471	52.329
65535
94.651	79.451	69.211	64.541	64.031	64.651	62.791	55.501	41.101	19.361	-8.909	-42.319	-79.389	-119.089	-160.919	-204.669	-186.771
65535
-10.499	-54.349	-92.829	-120.059	-130.409	-120.759	-92.329	-50.789	-4.619	37.861	71.171	93.891	107.961	116.591	122.441	126.721	9.967
65535
-67.097	-65.197	-63.067	-58.787	-50.757	-38.647	-23.717	-8.187	6.023	18.253	29.203	40.203	52.213	65.033	77.343	87.183	69.610
65535
33.250	34.090	30.290	22.770	12.770	1.480	-9.900	-20.100	-27.770	-31.650	-30.950	-25.600	-16.230	-4.090	9.280	22.360	84.919
65535
18.391	26.861	31.621	32.321	29.111	22.631	13.971	4.361	-5.109	-13.499	-20.239	-25.039	-27.889	-29.119	-29.279	-29.099	15.752
65535
39.898	38.878	36.838	33.778	29.788	24.878	18.838	11.478	2.718	-7.222	-17.872	-28.472	-38.092	-45.612	-49.902	-49.922	25.897
65535
-55.317	-46.077	-33.627	-19.927	-7.097	3.283	10.633	15.283	18.073	19.743	20.553	20.333	18.783	15.873	11.933	7.553	-16.749
65535
45.759	41.259	36.279	30.369	23.339	15.429	7.279	-0.541	-7.711	-14.221	-20.211	-25.661	-30.241	-33.351	-34.451	-33.331	33.537
65535
-80.567	-76.277	-71.507	-66.597	-61.217	-54.287	-44.327	-29.937	-10.457	13.523	39.943	65.533	86.403	98.873	100.423	90.473	-7.728
65535
111.858	85.498	57.008	30.538	8.978	-6.442	-16.072	-21.212	-23.482	-24.442	-25.312	-27.022	-30.122	-34.632	-40.012	-45.132	-37.773
65535
-18.707	-19.877	-18.297	-14.417	-9.197	-3.757	0.913	4.133	5.633	5.573	4.663	4.073	5.203	9.283	16.913	27.863	39.956
65535
-36.666	-22.716	-9.466	1.994	11.054	17.414	20.964	21.604	19.444	14.864	8.664	1.814	-4.726	-10.376	-15.006	-18.866	1.772
65535
15.878	12.628	9.608	7.008	5.058	3.828	3.158	2.748	2.288	1.488	0.068	-2.292	-6.012	-11.372	-18.252	-25.832	7.023
65535
-37.893	-42.143	-42.303	-37.723	-28.913	-17.413	-5.253	5.777	14.567	20.867	25.017	27.617	29.157	29.847	29.757	29.027	52.966
65535
-17.946	-18.586	-17.886	-15.096	-9.896	-2.806	4.944	11.724	16.184	17.604	16.124	12.494	7.724	2.744	-1.786	-5.536	-74.591
65535
118.941	115.821	111.271	103.431	90.561	71.711	47.281	19.021	-10.519	-38.889	-64.349	-86.139	-103.999	-117.709	-126.629	-129.799	-84.204
65535
-116.736	-106.516	-90.426	-70.446	-49.036	-28.486	-10.266	5.274	18.644	30.804	42.564	54.244	65.644	76.254	85.504	92.984	-1.932
65535
16.282	19.952	21.772	21.782	19.982	16.422	11.252	4.742	-2.618	-10.158	-16.978	-22.098	-24.588	-23.838	-19.648	-12.258	45.728
65535
-49.908	-37.938	-24.628	-10.618	3.312	16.082	26.302	32.652	34.222	30.932	23.542	13.422	2.072	-9.318	-20.088	-30.038	-19.184
65535
25.654	17.144	9.464	2.984	-1.926	-5.016	-6.356	-6.306	-5.416	-4.246	-3.236	-2.676	-2.796	-3.756	-5.566	-7.946	4.489
65535
-33.859	-34.869	-33.539	-29.199	-21.929	-12.579	-2.529	6.851	14.591	20.201	23.641	25.011	24.451	22.121	18.271	13.371	-5.915
65535
18.325	12.935	8.035	3.935	0.795	-1.385	-2.745	-3.445	-3.735	-3.815	-3.805	-3.805	-3.935	-4.385	-5.465	-7.505	-33.492
65535
16.812	12.252	6.572	0.252	-5.958	-11.078	-14.148	-14.488	-11.868	-6.808	-0.478	5.452	9.252	9.572	5.882	-1.218	-8.063
65535
-35.617	-44.137	-49.667	-50.117	-44.397	-32.757	-16.857	0.603	16.603	28.623	35.423	37.433	36.673	35.973	37.993	44.223	69.007
65535
-22.637	-10.227	1.793	10.993	15.893	16.343	13.203	7.903	1.933	-3.497	-7.527	-9.507	-9.097	-6.397	-2.017	2.843	65.695
65535
10.065	11.805	10.805	7.335	2.405	-2.665	-6.665	-8.865	-9.085	-7.715	-5.405	-2.915	-0.835	0.495	0.925	0.315	11.129
65535
53.011	49.541	44.131	36.701	27.481	17.081	6.261	-4.189	-13.679	-21.779	-28.139	-32.539	-34.859	-35.149	-33.579	-30.289	10.065
65535
-24.275	-17.455	-8.505	2.615	15.465	28.795	40.615	48.475	49.975	43.515	28.745	7.045	-18.685	-44.695	-67.345	-84.285	-124.375
65535
39.295	32.975	28.485	23.245	15.795	6.325	-3.765	-12.655	-19.035	-22.505	-23.445	-22.425	-19.765	-15.275	-8.465	1.215	39.955
65535
-150.135	-133.595	-113.275	-89.125	-61.455	-31.175	0.015	29.855	55.725	75.205	86.505	88.925	82.955	70.305	53.565	35.705	23.231
65535
36.099	23.069	13.989	8.429	5.319	3.439	1.839	-0.001	-2.141	-4.431	-6.731	-9.031	-11.611	-14.841	-19.061	-24.341	-15.565
65535
8.325	1.805	-4.585	-10.365	-15.145	-18.605	-20.385	-20.035	-17.175	-11.695	-3.895	5.445	15.205	24.125	31.195	35.785	10.048
65535
12.222	12.052	10.252	7.482	4.352	1.342	-1.198	-3.058	-4.168	-4.678	-4.848	-4.978	-5.288	-5.818	-6.488	-7.188	-11.681
65535
13.881	13.141	12.151	10.661	8.501	5.611	2.021	-2.109	-6.459	-10.499	-13.489	-14.579	-13.119	-8.919	-2.359	5.561	2.494
65535
-0.544	6.486	11.696	14.766	15.766	14.926	12.486	8.716	3.946	-1.364	-6.604	-11.214	-14.774	-17.144	-18.394	-18.744	-19.031
65535
3.111	3.921	4.981	5.981	6.511	6.171	4.751	2.391	-0.439	-3.099	-5.099	-6.229	-6.609	-6.439	-5.719	-4.189	-0.369
65535
-19.971	-15.431	-9.311	-2.341	4.329	9.539	12.569	13.279	12.069	9.539	6.279	2.689	-0.941	-4.411	-7.571	-10.321	-23.039
65535
9.979	7.829	5.699	3.479	1.269	-0.681	-2.091	-2.751	-2.691	-2.151	-1.521	-1.171	-1.421	-2.431	-4.311	-7.041	-8.990
65535
-24.450	-28.030	-31.080	-32.680	-31.920	-28.220	-21.520	-12.370	-1.720	9.250	19.420	27.950	34.370	38.580	40.830	41.590	33.899
65535
-1.419	-1.849	-2.149	-2.059	-1.529	-0.649	0.421	1.491	2.381	2.971	3.101	2.701	1.751	0.301	-1.599	-3.869	18.233
65535
9.197	6.317	3.227	-0.013	-3.173	-5.953	-7.973	-8.813	-8.243	-6.283	-3.283	0.137	3.337	5.837	7.457	8.217	12.108
65535
14.402	13.882	12.782	11.012	8.542	5.522	2.192	-1.048	-3.858	-5.968	-7.358	-8.198	-8.808	-9.578	-10.828	-12.688	-29.451
65535
26.401	23.461	20.231	16.841	13.351	9.811	6.191	2.491	-1.359	-5.379	-9.629	-14.019	-18.309	-21.959	-24.159	-23.969	-4.024
65535
-46.086	-39.396	-29.806	-18.486	-6.986	3.284	11.364	16.904	20.064	21.184	20.544	18.324	14.674	9.934	4.704	-0.226	-20.174
65535
11.944	9.324	8.004	7.604	7.584	7.494	6.994	5.944	4.264	1.894	-1.166	-4.856	-9.086	-13.706	-18.586	-23.656	-21.601
65535
-27.409	-32.329	-36.369	-38.659	-38.249	-34.439	-27.079	-16.669	-4.269	8.821	21.311	32.251	41.081	47.521	51.481	53.001	19.186
65535
11.434	8.734	4.844	0.684	-2.766	-4.786	-5.176	-4.246	-2.636	-1.016	0.124	0.574	0.344	-0.496	-1.866	-3.746	-6.924
65535
19.944	16.934	13.274	8.864	3.674	-2.156	-8.246	-13.836	-17.956	-19.626	-18.176	-13.496	-6.106	2.974	12.514	21.414	17.154
65535
4.746	10.176	13.386	14.306	12.996	9.716	5.036	-0.224	-5.104	-8.754	-10.754	-11.104	-10.304	-9.004	-7.864	-7.254	-4.851
65535
14.771	14.411	13.951	13.521	13.041	12.211	10.611	7.891	3.921	-1.179	-7.019	-12.949	-18.119	-21.639	-22.679	-20.749	13.755
65535
-34.415	-26.925	-17.835	-8.245	0.735	8.255	13.775	17.045	18.035	16.905	13.945	9.595	4.415	-0.885	-5.535	-8.865	3.033
65535
0.217	0.207	1.347	2.917	4.187	4.747	4.627	4.157	3.707	3.357	2.827	1.567	-0.973	-5.073	-10.633	-17.183	-1.621
65535
-19.279	-25.309	-29.699	-31.559	-30.249	-25.599	-17.919	-8.089	2.651	12.941	21.641	27.961	31.531	32.411	30.931	27.641	8.053
65535
13.577	8.817	4.387	0.937	-1.163	-1.813	-1.303	-0.283	0.537	0.577	-0.323	-1.883	-3.633	-5.093	-6.173	-7.173	-15.464
65535
14.914	12.564	9.024	4.384	-0.986	-6.516	-11.596	-15.516	-17.616	-17.316	-14.306	-8.616	-0.766	8.384	17.744	26.224	7.442
65535
10.008	14.288	15.848	14.768	11.578	7.048	2.198	-2.082	-5.242	-7.152	-8.112	-8.662	-9.302	-10.332	-11.692	-13.162	-20.525
65535
13.485	12.365	11.235	9.645	7.165	3.645	-0.605	-4.905	-8.425	-10.525	-11.005	-10.065	-8.045	-5.205	-1.595	2.835	58.704
65535
-71.064	-64.664	-56.734	-46.394	-32.584	-14.844	5.976	27.256	45.216	56.146	57.836	50.516	36.536	19.286	1.776	-14.264	-44.840
65535
75.040	62.140	50.100	38.870	28.670	19.660	11.570	3.670	-4.860	-14.430	-24.710	-34.800	-43.660	-50.730	-56.150	-60.380	64.179
65535
-172.499	-173.489	-170.249	-160.239	-141.539	-113.719	-77.969	-36.609	7.691	52.451	95.381	134.131	166.111	188.811	200.551	201.181	147.175
65535
109.305	93.925	75.375	56.545	39.135	23.745	10.155	-2.195	-13.805	-24.995	-35.855	-46.385	-56.555	-66.385	-76.055	-85.955	-70.802
65535
121.192	108.402	92.642	73.252	50.342	24.992	-0.818	-24.788	-44.778	-59.368	-67.868	-70.228	-66.848	-58.458	-46.168	-31.498	10.534
65535
-97.564	-83.164	-70.444	-59.244	-48.584	-37.364	-24.804	-10.804	4.266	19.886	35.686	51.316	66.116	78.746	87.116	88.846	-97.985
65535
190.615	174.805	150.985	121.505	89.135	56.195	24.055	-6.805	-36.175	-63.515	-87.725	-107.335	-121.135	-128.615	-130.025	-125.965	-81.501
65535
-133.389	-119.419	-100.489	-77.069	-50.579	-23.359	1.841	22.751	38.271	48.691	55.321	59.851	63.631	67.421	71.351	75.181	7.414
65535
-10.294	-7.374	-4.984	-2.944	-1.104	0.626	2.216	3.536	4.446	4.876	4.846	4.376	3.436	1.946	-0.284	-3.314	-3.813
65535
4.133	-0.077	-4.307	-8.007	-10.747	-12.127	-11.947	-10.197	-7.077	-2.997	1.513	5.953	9.923	13.213	15.643	17.103	1.246
65535
12.414	11.654	9.894	7.434	4.644	1.884	-0.646	-2.816	-4.546	-5.746	-6.356	-6.376	-5.966	-5.436	-5.056	-4.976	-6.726
65535
2.776	2.376	1.896	1.386	0.756	-0.024	-0.924	-1.894	-2.824	-3.554	-3.884	-3.544	-2.294	-0.024	3.096	6.676	9.295
65535
-5.785	-2.635	0.025	2.235	4.095	5.525	6.215	5.875	4.415	2.095	-0.535	-2.845	-4.385	-5.025	-4.925	-4.345	0.901
65535
4.839	5.619	6.229	6.529	6.359	5.629	4.379	2.769	1.039	-0.651	-2.261	-3.891	-5.721	-7.881	-10.291	-12.691	4.853
65535
-18.683	-19.943	-20.073	-18.883	-16.323	-12.503	-7.703	-2.323	3.117	8.137	12.357	15.567	17.797	19.187	19.957	20.307	18.513
65535
6.727	6.677	6.577	6.497	6.397	6.127	5.487	4.277	2.387	-0.083	-2.883	-5.613	-7.943	-9.813	-11.463	-13.363	-4.971
65535
7.501	3.991	-0.179	-4.419	-8.009	-10.389	-11.329	-10.869	-9.209	-6.549	-3.009	1.261	6.031	10.901	15.361	18.911	10.990
65535
5.240	6.130	5.700	4.220	2.110	-0.120	-1.990	-3.110	-3.330	-2.750	-1.770	-0.910	-0.640	-1.270	-2.740	-4.770	-2.960
65535
7.020	5.110	3.710	2.860	2.420	2.080	1.420	0.080	-2.110	-4.950	-7.690	-9.270	-8.530	-4.790	1.930	10.710	27.258
65535
-10.138	-1.788	4.422	8.062	9.582	9.842	9.722	9.632	9.322	8.092	5.182	0.322	-6.048	-12.938	-19.208	-24.068	-57.498
65535
57.418	55.158	52.808	48.988	42.338	31.808	17.158	-0.552	-18.892	-34.572	-44.682	-47.912	-45.472	-40.482	-36.642	-36.472	-76.881
65535
-20.829	-26.649	-31.569	-32.819	-28.629	-18.689	-4.099	12.671	28.151	38.541	40.891	34.481	21.401	6.051	-6.479	-12.419	-19.238
65535
-67.972	-58.782	-44.522	-27.412	-9.372	7.528	20.588	26.808	24.258	13.938	0.608	-8.282	-5.632	11.818	41.358	75.078	-25.683
65535
109.333	122.853	117.973	95.293	58.793	14.173	-32.147	-73.307	-102.297	-113.377	-104.157	-77.417	-41.207	-6.777	15.043	17.233	-246.645
65535
219.255	182.895	136.265	87.455	43.255	7.675	-18.585	-37.535	-52.375	-65.625	-77.805	-87.485	-92.345	-90.815	-83.115	-71.115	-145.705
65535
-158.095	-143.575	-128.425	-111.425	-91.285	-67.695	-41.565	-14.585	11.635	36.255	59.425	82.005	104.995	129.015	154.005	179.315	240.224
65535
-181.994	-158.914	-137.734	-118.114	-99.074	-79.304	-57.504	-32.674	-4.254	27.776	62.736	98.986	133.856	163.946	185.746	196.516	262.857
65535
172.473	159.533	137.283	108.783	77.093	44.693	13.123	-16.837	-44.627	-69.427	-89.707	-103.427	-108.807	-105.367	-94.667	-80.117	133.813
65535
63.197	74.037	80.277	82.667	82.717	81.107	76.727	66.867	48.587	20.367	-16.683	-58.923	-101.263	-138.993	-169.183	-191.503	-132.449
65535
58.539	45.669	33.819	22.019	10.719	1.149	-5.731	-9.841	-12.021	-13.521	-15.261	-17.611	-20.381	-23.251	-25.971	-28.331	-43.979
65535
-118.411	-118.441	-115.691	-108.851	-96.891	-79.431	-56.811	-29.971	-0.291	30.599	60.909	88.839	112.849	131.859	145.529	154.199	96.919
65535
17.781	19.091	18.081	15.451	11.751	7.551	3.451	-0.019	-2.609	-4.469	-6.119	-8.209	-11.199	-15.199	-20.019	-25.319	18.741
65535
47.359	41.749	35.879	29.399	21.899	13.059	2.889	-8.051	-18.631	-27.291	-32.541	-33.461	-30.021	-23.121	-14.221	-4.901	19.896
65535
2.404	9.154	13.674	15.694	15.084	12.014	6.984	0.974	-4.876	-9.426	-12.016	-12.586	-11.656	-10.006	-8.346	-7.076	1.539
65535
12.131	12.751	13.281	13.671	13.681	12.961	11.201	8.191	3.891	-1.519	-7.599	-13.609	-18.559	-21.379	-21.249	-17.849	25.900
65535
-35.870	-27.470	-18.150	-9.040	-0.970	5.590	10.450	13.540	14.880	14.530	12.700	9.800	6.430	3.270	0.850	-0.540	16.456
65535
8.434	8.524	8.734	8.694	8.284	7.544	6.584	5.424	3.974	2.024	-0.636	-4.106	-8.376	-13.256	-18.436	-23.406	20.273
65535
-31.323	-33.753	-33.763	-30.853	-24.993	-16.723	-7.033	2.867	11.807	18.957	23.887	26.497	26.957	25.557	22.757	19.147	7.663
65535
28.067	24.947	22.777	21.407	20.217	18.277	14.807	9.507	2.697	-4.813	-12.163	-18.763	-24.463	-29.493	-34.203	-38.813	-35.751
65535
0.051	-4.389	-8.669	-12.779	-16.669	-20.019	-22.199	-22.339	-19.609	-13.599	-4.509	6.751	18.871	30.461	40.441	48.211	17.118
65535
0.762	4.042	5.532	5.582	4.532	2.712	0.512	-1.668	-3.418	-4.458	-4.658	-4.078	-2.978	-1.708	-0.638	-0.078	-2.477
65535
19.377	18.537	17.067	15.127	12.847	10.327	7.597	4.657	1.477	-2.043	-6.033	-10.593	-15.613	-20.643	-24.853	-27.233	7.502
65535
-36.822	-33.242	-26.712	-18.162	-8.872	-0.162	7.018	12.188	15.338	16.698	16.658	15.588	13.758	11.448	8.898	6.378	6.570
65535
5.110	3.470	2.580	2.440	2.880	3.550	4.050	4.020	3.320	1.960	0.120	-2.000	-4.260	-6.600	-9.040	-11.600	-14.346
65535
6.596	3.666	0.426	-3.184	-7.114	-11.034	-14.304	-16.094	-15.674	-12.624	-7.104	0.226	8.356	16.256	23.126	28.486	13.405
65535
4.475	6.685	7.545	7.225	5.925	3.865	1.385	-1.105	-3.215	-4.675	-5.405	-5.545	-5.275	-4.775	-4.055	-3.055	7.163
65535
4.427	5.747	6.807	7.217	6.737	5.417	3.537	1.527	-0.263	-1.663	-2.773	-3.853	-5.213	-7.033	-9.223	-11.403	28.376
65535
-34.116	-34.106	-31.786	-26.726	-18.956	-9.126	1.524	11.484	19.274	23.874	24.914	22.834	18.704	13.964	10.074	8.164	79.223
65535
-42.063	-38.913	-33.793	-27.533	-20.963	-14.753	-9.193	-4.213	0.647	6.107	12.887	21.297	30.617	38.807	42.597	38.467	-64.421
65535
167.601	142.701	110.321	75.501	43.641	18.481	0.941	-10.689	-19.399	-27.899	-37.919	-50.299	-65.959	-86.329	-113.189	-147.509	-303.937
65535
51.027	6.327	-37.753	-76.823	-107.543	-127.933	-136.873	-133.343	-116.113	-84.203	-37.693	21.487	89.497	161.287	231.777	296.877	173.770
65535
-123.590	-75.200	-35.690	-4.670	18.340	33.920	42.850	46.200	45.220	41.010	34.230	25.000	13.090	-1.750	-19.430	-39.530	-27.060
65535
139.480	116.690	93.480	70.330	47.630	25.890	5.710	-12.180	-27.170	-39.030	-48.160	-55.680	-63.230	-72.400	-83.950	-97.410	-108.598
65535
-29.472	-40.762	-47.572	-48.862	-45.072	-37.752	-28.722	-19.272	-9.832	-0.112	10.488	22.668	37.218	55.108	77.368	104.578	122.080
65535
-94.470	-60.320	-26.720	3.000	26.300	42.000	50.270	52.040	48.400	40.270	28.410	13.660	-3.090	-21.080	-39.800	-58.870	31.554
65535
12.876	-4.444	-18.544	-27.614	-30.514	-27.314	-19.404	-8.974	1.706	10.886	17.566	21.466	22.606	21.156	17.286	11.266	-9.514
65535
44.644	36.054	27.524	19.984	14.054	9.844	6.864	4.244	0.984	-3.666	-9.946	-17.436	-25.236	-32.136	-36.956	-38.816	-6.019
65535
-40.831	-36.211	-29.131	-20.551	-11.491	-2.841	4.779	10.969	15.519	18.299	19.269	18.559	16.579	14.049	11.919	11.119	29.193
65535
-22.983	-19.903	-15.413	-10.503	-6.143	-2.993	-1.093	0.027	1.157	2.977	5.737	9.157	12.577	15.177	16.347	15.877	73.241
65535
-29.891	-31.901	-32.681	-30.501	-23.881	-12.191	3.809	21.829	38.399	49.699	52.609	45.559	28.849	4.279	-25.611	-58.381	-223.374
65535
204.294	170.054	135.724	101.294	66.834	32.714	-0.326	-31.326	-59.186	-82.716	-100.556	-110.966	-111.866	-100.926	-76.196	-36.856	129.873
65535
-337.113	-273.533	-204.103	-134.263	-68.953	-11.833	35.147	71.457	97.607	114.757	124.407	128.087	126.997	121.667	111.987	97.687	97.354
65535
111.526	89.636	66.476	44.106	23.796	5.776	-10.444	-25.144	-37.704	-46.774	-50.964	-49.794	-44.104	-35.594	-25.734	-15.064	67.904
65535
26.046	38.606	50.626	59.146	60.716	53.176	37.106	15.886	-5.654	-23.384	-35.494	-42.864	-48.044	-53.674	-61.284	-70.904	-173.433
65535
159.643	148.503	137.263	125.353	111.723	95.063	74.183	48.183	16.763	-19.587	-59.517	-100.727	-140.297	-175.097	-202.197	-219.257	-190.379
65535
-207.861	-201.511	-183.931	-156.791	-122.381	-83.411	-42.561	-2.261	35.529	69.459	98.849	123.669	144.439	161.929	176.919	189.909	34.130
65535
-23.390	-14.010	-6.550	-1.040	2.600	4.450	4.640	3.340	1.020	-1.560	-3.300	-3.130	-0.350	5.030	12.240	20.010	60.690
65535
0.440	5.670	8.770	9.930	9.680	8.540	6.830	4.670	2.050	-0.930	-4.030	-6.870	-9.150	-10.780	-11.910	-12.910	25.230
65535
21.340	19.680	17.580	15.150	12.550	9.880	7.100	4.150	0.940	-2.570	-6.390	-10.560	-15.080	-19.920	-24.780	-29.070	33.044
65535
-39.734	-40.194	-37.574	-31.734	-23.174	-12.924	-2.234	7.786	16.386	23.136	27.786	30.026	29.426	25.636	18.596	8.786	-12.221
65535
42.471	30.391	19.071	9.371	1.721	-3.869	-7.659	-9.999	-11.209	-11.609	-11.469	-10.999	-10.329	-9.539	-8.639	-7.699	-7.541
65535
-11.499	-10.929	-10.929	-11.689	-13.079	-14.619	-15.449	-14.589	-11.319	-5.529	2.171	10.671	18.691	25.271	29.991	32.841	15.053
65535
11.487	11.327	9.917	7.377	3.947	0.157	-3.343	-5.933	-7.213	-7.183	-6.173	-4.693	-3.293	-2.343	-1.953	-2.083	-2.824
65535
15.334	14.664	13.814	12.674	11.084	8.914	6.104	2.694	-1.156	-5.236	-9.226	-12.686	-15.096	-15.906	-14.696	-11.276	15.009
65535
-23.679	-16.809	-9.319	-2.109	4.021	8.521	11.181	12.041	11.351	9.421	6.631	3.361	0.021	-2.959	-5.199	-6.469	1.741
65535
6.459	6.769	7.259	7.419	6.899	5.609	3.699	1.509	-0.581	-2.311	-3.601	-4.611	-5.641	-7.091	-9.311	-12.471	-3.093
65535
-11.657	-16.127	-20.327	-23.377	-24.437	-22.927	-18.737	-12.227	-4.127	4.593	12.973	20.233	25.783	29.303	30.753	30.303	13.128
65535
12.132	9.262	6.052	3.042	0.582	-1.188	-2.258	-2.768	-2.858	-2.688	-2.458	-2.318	-2.448	-2.948	-3.888	-5.248	-8.824
65535
15.024	13.134	11.164	9.144	7.064	4.794	2.164	-0.946	-4.496	-8.116	-11.176	-12.866	-12.476	-9.686	-4.666	1.934	9.628
65535
-9.268	-2.348	3.462	7.682	10.102	10.782	9.902	7.762	4.702	1.142	-2.448	-5.628	-7.988	-9.308	-9.568	-8.978	-3.606
65535
5.266	6.256	6.816	6.776	6.186	5.246	4.166	3.096	1.986	0.726	-0.884	-2.994	-5.674	-8.844	-12.334	-15.794	-0.672
65535
-21.658	-23.478	-23.598	-21.638	-17.548	-11.658	-4.728	2.352	8.732	13.792	17.222	18.972	19.092	17.702	15.032	11.412	0.386
65535
6.324	2.524	-0.476	-2.316	-2.936	-2.556	-1.546	-0.276	0.914	1.804	2.194	1.974	1.084	-0.346	-2.176	-4.186	-10.903
65535
4.993	2.773	0.323	-2.487	-5.607	-8.777	-11.487	-13.097	-12.977	-10.757	-6.437	-0.437	6.483	13.433	19.603	24.463	5.583
65535
11.257	12.887	12.917	11.447	8.697	5.007	0.947	-2.843	-5.783	-7.553	-8.193	-8.073	-7.683	-7.443	-7.563	-8.033	-14.863
65535
11.733	10.993	10.233	9.383	8.343	6.993	5.243	3.013	0.243	-3.027	-6.567	-9.927	-12.417	-13.347	-12.167	-8.717	7.483
65535
-25.603	-18.783	-11.393	-4.253	1.987	6.877	10.157	11.797	11.867	10.567	8.207	5.177	1.937	-0.993	-3.183	-4.363	-0.338
65535
3.258	3.758	4.488	5.048	5.198	4.938	4.408	3.748	2.958	1.868	0.308	-1.832	-4.522	-7.652	-11.122	-14.842	-3.408
65535
-15.562	-19.062	-21.642	-22.542	-21.172	-17.392	-11.602	-4.592	2.638	9.258	14.758	18.888	21.608	22.858	22.618	20.938	4.319
65535
10.361	6.811	3.211	0.181	-1.829	-2.709	-2.629	-1.969	-1.169	-0.549	-0.279	-0.379	-0.829	-1.589	-2.649	-3.979	-11.129
65535
9.889	8.089	6.029	3.589	0.659	-2.791	-6.531	-9.981	-12.351	-12.891	-11.121	-7.061	-1.261	5.439	12.149	18.149	9.036
65535
2.824	6.314	8.414	9.154	8.624	6.974	4.454	1.424	-1.686	-4.466	-6.566	-7.746	-7.996	-7.486	-6.566	-5.666	-6.730
65535
10.620	10.590	10.060	9.210	8.220	7.140	5.870	4.240	2.110	-0.590	-3.780	-7.280	-10.780	-13.810	-15.770	-16.050	6.749
65535
-27.659	-23.509	-17.449	-10.249	-2.909	3.651	8.751	12.111	13.691	13.681	12.311	9.851	6.691	3.261	0.101	-2.329	1.449
65535
1.581	1.241	1.721	2.601	3.441	3.911	3.861	3.321	2.381	1.191	-0.119	-1.529	-3.029	-4.719	-6.719	-9.139	-2.734
65535
-7.836	-11.056	-14.266	-16.896	-18.306	-17.886	-15.346	-10.776	-4.656	2.264	9.154	15.254	20.004	22.994	24.074	23.284	8.101
65535
10.109	6.759	3.089	-0.251	-2.761	-4.191	-4.521	-3.931	-2.741	-1.361	-0.161	0.569	0.719	0.339	-0.391	-1.271	-5.198
65535
11.078	9.988	8.608	6.778	4.418	1.608	-1.452	-4.442	-7.022	-8.802	-9.462	-8.772	-6.672	-3.252	1.188	6.208	2.100
65535
3.970	8.430	11.740	13.420	13.270	11.370	8.070	3.910	-0.520	-4.670	-8.130	-10.670	-12.210	-12.840	-12.780	-12.360	-14.558
65535
4.758	5.028	5.048	4.868	4.628	4.398	4.128	3.658	2.768	1.288	-0.852	-3.532	-6.392	-8.922	-10.462	-10.402	5.941
65535
-28.831	-24.681	-18.771	-11.771	-4.531	2.119	7.589	11.529	13.799	14.429	13.539	11.369	8.309	4.899	1.719	-0.721	1.943
65535
1.887	1.547	1.997	2.837	3.627	4.077	4.037	3.487	2.537	1.317	-0.043	-1.513	-3.133	-5.033	-7.383	-10.253	-2.108
65535
-9.572	-13.162	-16.512	-18.992	-19.882	-18.652	-15.102	-9.512	-2.592	4.698	11.418	16.908	20.828	23.118	23.848	23.168	7.140
65535
11.980	9.060	5.620	2.200	-0.640	-2.510	-3.290	-3.180	-2.520	-1.770	-1.270	-1.230	-1.660	-2.480	-3.550	-4.760	-10.063
65535
11.143	9.713	8.103	6.233	4.033	1.433	-1.607	-4.977	-8.287	-10.917	-12.057	-11.037	-7.567	-1.907	5.153	12.543	10.742
65535
-1.522	3.848	7.518	9.458	9.818	8.768	6.548	3.478	0.008	-3.352	-6.102	-7.882	-8.592	-8.332	-7.422	-6.242	-3.448
65535
9.008	9.658	9.748	9.238	8.218	6.838	5.188	3.348	1.368	-0.782	-3.152	-5.792	-8.712	-11.822	-14.882	-17.462	3.223
65535
-25.623	-25.433	-23.163	-18.803	-12.793	-5.943	0.777	6.557	10.937	13.807	15.347	15.787	15.247	13.767	11.347	8.187	3.483
65535
4.467	1.307	-0.943	-1.933	-1.693	-0.583	0.847	2.087	2.797	2.877	2.357	1.307	-0.173	-2.033	-4.193	-6.493	-10.849
65535
5.539	3.279	0.959	-1.631	-4.601	-7.821	-10.791	-12.741	-12.901	-10.821	-6.591	-0.761	5.799	12.259	18.039	22.779	8.374
65535
7.106	9.326	10.116	9.456	7.486	4.576	1.226	-2.054	-4.804	-6.734	-7.674	-7.664	-6.864	-5.634	-4.374	-3.494	-7.492
65535
12.572	12.032	10.882	9.362	7.692	6.052	4.432	2.812	1.062	-0.978	-3.498	-6.578	-10.048	-13.408	-15.858	-16.528	5.033
65535
-27.343	-23.143	-16.953	-9.723	-2.503	3.817	8.677	11.867	13.367	13.337	11.967	9.557	6.467	3.127	-0.003	-2.523	1.540
65535
-0.610	-1.130	-0.630	0.590	2.080	3.400	4.170	4.270	3.730	2.730	1.440	-0.070	-1.790	-3.750	-5.980	-8.450	-6.761
65535
-2.839	-5.709	-8.649	-11.469	-13.779	-15.059	-14.799	-12.639	-8.559	-2.909	3.601	10.141	15.871	20.191	22.831	23.771	5.218
65535
11.252	9.512	6.922	3.812	0.602	-2.278	-4.378	-5.398	-5.278	-4.298	-2.948	-1.748	-1.078	-1.038	-1.488	-2.168	-10.666
65535
12.996	12.236	11.286	9.956	8.086	5.626	2.636	-0.734	-4.294	-7.704	-10.484	-12.084	-11.964	-9.824	-5.704	-0.024	7.440
65535
-11.590	-5.050	0.750	5.240	8.110	9.310	9.010	7.480	5.100	2.230	-0.740	-3.440	-5.550	-6.850	-7.230	-6.780	-1.519
65535
3.189	4.369	5.369	5.929	5.989	5.589	4.859	3.909	2.769	1.369	-0.381	-2.581	-5.301	-8.441	-11.771	-14.861	3.228
65535
-21.908	-22.838	-21.958	-19.098	-14.458	-8.588	-2.218	3.892	9.132	13.102	15.622	16.662	16.292	14.712	12.252	9.392	11.324
65535
-1.444	-3.564	-4.714	-4.804	-3.964	-2.514	-0.874	0.616	1.746	2.496	2.956	3.246	3.396	3.266	2.666	1.486	2.799
65535
8.251	6.131	3.911	1.811	-0.069	-1.709	-3.089	-4.149	-4.789	-4.869	-4.319	-3.139	-1.439	0.581	2.621	4.261	-11.619
65535
19.429	18.849	16.689	13.029	8.289	3.139	-1.701	-5.651	-8.381	-9.841	-10.231	-9.891	-9.201	-8.521	-8.071	-7.931	-18.159
65535
-1.471	-1.581	-1.491	-1.051	-0.261	0.709	1.599	2.109	2.029	1.309	0.089	-1.241	-2.141	-1.961	-0.151	3.509	11.208
65535
-20.538	-14.128	-7.478	-1.388	3.542	7.032	9.052	9.712	9.172	7.612	5.282	2.552	-0.128	-2.308	-3.708	-4.288	3.216
65535
3.784	4.204	4.674	4.944	4.934	4.594	3.934	2.974	1.744	0.294	-1.296	-2.996	-4.816	-6.796	-8.966	-11.206	6.309
65535
-16.309	-17.559	-17.509	-15.779	-12.329	-7.539	-2.079	3.261	7.801	11.121	13.071	13.671	13.051	11.441	9.141	6.541	12.656
65535
-2.256	-4.166	-5.246	-5.466	-4.906	-3.766	-2.236	-0.516	1.224	2.784	3.934	4.544	4.584	4.224	3.764	3.504	42.910
65535
-26.620	-26.120	-25.400	-24.580	-23.520	-21.790	-18.770	-13.900	-6.940	1.840	11.710	21.640	30.560	37.490	41.680	42.720	31.393
65535
52.247	48.007	43.017	39.107	37.607	38.477	39.807	38.197	30.157	13.757	-10.043	-37.493	-63.363	-82.883	-93.143	-93.463	-75.868
65535
22.338	37.498	56.118	74.078	86.478	88.718	78.078	55.088	23.648	-10.432	-41.722	-67.022	-85.742	-98.872	-107.312	-110.932	-90.533
65535
-94.097	-85.487	-71.067	-52.947	-33.887	-16.147	-0.827	12.133	23.313	32.993	40.913	46.423	49.213	49.783	49.503	50.183	23.988
65535
-61.198	-54.868	-45.578	-34.238	-22.018	-10.118	0.392	8.712	14.412	17.772	19.792	22.012	25.892	32.042	39.762	47.222	23.815
65535
52.405	53.335	49.725	42.385	32.745	22.215	11.735	1.705	-7.765	-16.595	-24.645	-31.825	-38.155	-43.815	-49.125	-54.325	-58.458
65535
22.768	17.718	13.058	9.098	6.048	3.958	2.628	1.638	0.418	-1.482	-4.252	-7.712	-11.392	-14.812	-17.682	-20.002	-46.726
65535
-33.744	-35.654	-37.504	-38.884	-39.044	-37.044	-32.054	-23.634	-12.024	1.966	17.006	31.706	44.916	56.076	65.206	72.706	54.166
65535
-21.776	-16.126	-11.146	-6.946	-3.646	-1.206	0.574	2.004	3.364	4.784	6.194	7.424	8.334	8.924	9.364	9.874	56.748
65535
7.942	8.542	8.692	7.962	6.172	3.532	0.632	-1.868	-3.538	-4.318	-4.528	-4.608	-4.908	-5.558	-6.498	-7.648	35.007
65535
12.773	11.223	9.363	7.203	4.883	2.613	0.643	-0.837	-1.807	-2.407	-2.947	-3.797	-5.287	-7.537	-10.427	-13.657	13.656
65535
4.524	1.734	-0.476	-2.056	-3.016	-3.446	-3.476	-3.286	-3.066	-2.916	-2.726	-2.136	-0.646	2.184	6.544	12.264	81.470
65535
-48.950	-41.960	-34.900	-27.780	-20.410	-12.660	-4.660	3.190	10.400	16.680	21.980	26.340	29.530	30.810	29.070	23.320	-40.047
65535
134.757	121.007	104.877	87.657	70.097	52.097	33.097	12.697	-8.933	-30.983	-52.453	-72.563	-90.903	-107.283	-121.273	-131.893	-51.818
65535
-125.942	-125.502	-117.902	-103.302	-82.972	-59.052	-33.792	-9.012	14.348	36.178	56.878	76.708	95.498	112.538	126.988	138.348	32.773
65535
62.117	68.027	71.927	73.527	71.637	64.537	50.877	30.567	5.167	-22.313	-48.313	-69.573	-84.053	-91.293	-92.523	-90.323	-150.529
65535
95.219	94.019	86.569	71.339	48.429	19.579	-12.031	-42.231	-66.641	-81.471	-84.441	-75.341	-55.981	-29.551	0.589	31.949	89.469
65535
-176.579	-144.979	-112.879	-80.389	-48.449	-18.669	7.281	28.211	43.751	54.461	61.561	66.631	71.221	76.511	82.841	89.481	50.256
65535
133.734	134.314	127.324	110.394	82.994	47.094	7.024	-31.566	-63.276	-84.456	-94.086	-93.616	-86.096	-74.946	-62.946	-51.886	19.019
65535
-11.399	-4.259	0.681	3.531	4.641	4.711	4.661	5.331	7.021	9.201	10.541	9.371	4.451	-4.409	-15.999	-28.069	-73.581
65535
54.331	47.481	43.821	41.601	38.241	31.541	20.711	6.731	-8.099	-21.279	-31.029	-36.999	-40.269	-42.899	-47.459	-56.429	-163.806
65535
18.546	-3.484	-30.694	-59.094	-82.804	-95.594	-93.104	-74.684	-43.904	-7.354	27.796	56.466	77.116	91.536	103.346	115.906	67.297
65535
-100.137	-82.667	-63.967	-45.397	-27.807	-11.627	2.903	15.313	25.053	31.833	35.943	38.353	40.353	43.043	46.933	51.873	155.711
65535
-31.191	-26.111	-21.781	-18.271	-15.191	-11.701	-6.741	0.529	10.169	21.019	30.639	35.859	33.769	22.639	2.339	-25.981	28.634
65535
66.366	26.686	-16.444	-60.564	-101.224	-131.804	-144.944	-135.234	-101.844	-49.794	11.176	69.556	115.756	144.526	155.586	152.196	55.047
65535
112.553	93.623	71.893	49.233	27.053	6.763	-10.247	-22.987	-31.257	-35.757	-37.897	-39.287	-41.217	-44.157	-47.657	-50.657	-19.664
65535
22.654	23.324	25.604	28.194	29.654	28.984	26.034	21.264	15.194	7.834	-1.406	-13.266	-28.006	-44.916	-62.456	-78.696	-106.652
65535
-5.058	-14.728	-20.618	-23.038	-22.388	-19.048	-13.608	-6.978	-0.328	5.342	9.592	12.802	15.982	20.292	26.602	35.182	-19.768
65535
-41.232	-29.692	-18.062	-7.312	1.748	8.528	12.668	14.238	13.668	11.708	9.248	6.998	5.358	4.378	3.928	3.828	-18.376
65535
2.666	3.236	4.116	5.076	5.726	5.666	4.706	2.986	0.936	-0.944	-2.344	-3.324	-4.304	-5.754	-7.914	-10.524	-0.231
65535
-30.899	-31.649	-29.939	-25.389	-18.349	-9.819	-1.069	6.751	12.901	17.151	19.601	20.521	20.211	18.911	16.841	14.231	-11.354
65535
22.514	19.704	17.174	15.054	13.364	11.984	10.634	8.964	6.544	3.034	-1.776	-7.976	-15.506	-24.306	-34.256	-45.146	-61.414
65535
-6.506	-17.736	-27.786	-35.576	-40.146	-40.916	-37.726	-30.716	-20.336	-7.176	7.884	23.754	39.214	53.214	65.204	75.354	101.449
65535
-78.409	-69.199	-58.779	-46.519	-32.329	-16.739	-0.679	14.631	27.891	37.961	44.021	45.791	43.541	37.991	30.091	20.731	47.412
65535
64.668	54.248	43.778	33.438	23.368	13.708	4.508	-4.202	-12.372	-19.872	-26.422	-31.632	-35.092	-36.642	-36.432	-35.052	1.953
65535
12.147	13.407	13.627	12.627	10.647	8.107	5.427	2.837	0.397	-2.033	-4.603	-7.463	-10.693	-14.283	-18.143	-22.013	-54.986
65535
31.286	28.186	25.776	24.106	23.086	22.436	21.686	20.056	16.566	10.186	0.336	-12.834	-28.324	-44.814	-61.114	-76.624	-64.870
65535
-81.010	-93.160	-101.230	-102.380	-94.020	-75.190	-47.580	-15.240	16.750	44.120	64.840	79.260	89.380	97.450	105.100	112.910	63.946
65535
-8.026	-0.436	6.544	12.734	17.934	21.834	23.934	23.744	20.844	15.144	6.914	-3.316	-14.896	-27.386	-40.656	-54.906	-76.788
65535
70.308	53.538	36.058	18.998	3.788	-8.302	-16.572	-21.032	-22.352	-21.532	-19.632	-17.512	-15.712	-14.402	-13.412	-12.222	-23.298
65535
-63.642	-60.072	-54.642	-47.352	-38.482	-28.452	-17.542	-5.902	6.338	18.838	30.898	41.538	49.758	54.928	57.048	56.738	39.207
65535
-7.537	-9.777	-11.787	-13.337	-14.477	-15.347	-15.887	-15.667	-13.987	-10.167	-3.777	5.053	15.603	26.823	37.523	46.743	83.598
65535
9.462	14.152	16.402	16.402	14.562	11.512	7.992	4.662	1.812	-0.698	-3.408	-6.928	-11.658	-17.608	-24.548	-32.118	-18.337
65535
61.857	53.587	45.057	36.387	27.797	19.507	11.517	3.577	-4.783	-13.873	-23.553	-33.073	-41.213	-46.703	-48.743	-47.343	-58.033
65535
-3.637	1.653	6.783	10.693	12.793	12.963	11.393	8.483	4.673	0.443	-3.747	-7.537	-10.697	-13.177	-14.987	-16.097	-38.366
65535
-35.984	-35.004	-32.564	-28.544	-23.064	-16.494	-9.254	-1.704	5.876	13.226	19.936	25.466	29.186	30.696	30.086	28.146	26.759
65535
-38.939	-39.399	-37.239	-32.019	-24.149	-14.649	-4.709	4.631	12.711	19.191	23.921	26.841	27.951	27.391	25.531	22.931	42.558
65535
4.392	2.052	0.432	-0.358	-0.388	0.102	0.812	1.442	1.752	1.612	1.042	0.132	-1.008	-2.328	-3.878	-5.818	40.306
65535
-6.056	-9.156	-12.756	-16.436	-19.506	-21.166	-20.676	-17.656	-12.196	-4.796	3.734	12.554	20.984	28.514	34.844	39.774	46.111
65535
37.359	39.069	38.969	36.999	33.219	27.769	20.899	12.849	3.859	-5.871	-16.121	-26.581	-36.901	-46.651	-55.511	-63.361	-64.653
65535
40.393	33.853	27.323	20.413	12.863	4.573	-4.287	-13.207	-21.287	-27.297	-29.947	-28.247	-21.907	-11.457	1.853	16.363	-2.666
65535
-31.494	-18.914	-8.524	-0.564	4.996	8.276	9.476	8.936	7.196	4.966	2.976	1.806	1.626	2.226	3.136	3.876	-5.120
65535
6.570	6.300	5.710	5.010	4.340	3.640	2.740	1.440	-0.380	-2.630	-5.000	-6.950	-7.880	-7.270	-4.870	-0.770	10.821
65535
-11.391	-5.501	0.249	5.319	9.339	12.079	13.389	13.089	11.089	7.459	2.589	-2.891	-8.231	-12.751	-15.991	-17.851	-5.431
65535
-2.189	-1.779	-0.639	0.961	2.761	4.461	5.781	6.431	6.251	5.161	3.151	0.301	-3.149	-6.699	-9.649	-11.159	11.571
65535
-27.591	-24.701	-19.801	-13.581	-6.941	-0.611	4.899	9.289	12.399	14.059	14.169	12.839	10.419	7.499	4.799	2.849	8.609
65535
4.821	4.661	4.951	5.281	5.381	5.171	4.721	4.111	3.361	2.351	0.871	-1.329	-4.439	-8.469	-13.219	-18.229	4.733
65535
-18.913	-22.183	-23.413	-22.193	-18.553	-13.003	-6.383	0.457	6.797	12.147	16.207	18.767	19.717	19.097	17.137	14.317	4.781
65535
11.139	8.239	5.879	4.149	2.949	2.089	1.379	0.689	-0.091	-1.041	-2.151	-3.401	-4.761	-6.301	-8.171	-10.601	-2.586
65535
-6.344	-10.014	-13.744	-16.734	-18.144	-17.324	-14.154	-9.074	-2.894	3.446	9.206	13.996	17.686	20.286	21.766	22.036	7.220
65535
11.290	9.300	6.650	3.860	1.410	-0.410	-1.590	-2.240	-2.570	-2.740	-2.880	-3.050	-3.320	-3.770	-4.450	-5.490	-7.692
65535
7.882	5.682	2.702	-0.998	-5.108	-9.068	-12.128	-13.598	-12.988	-10.248	-5.708	-0.078	5.872	11.472	16.262	20.052	10.003
65535
5.047	6.597	6.957	6.127	4.317	1.987	-0.283	-1.993	-2.903	-3.113	-2.973	-2.883	-3.113	-3.713	-4.563	-5.503	-10.819
65535
14.379	13.459	12.399	10.979	8.959	6.139	2.469	-1.871	-6.391	-10.421	-13.171	-14.001	-12.581	-9.001	-3.761	2.409	10.061
65535
-12.121	-6.181	-1.041	3.089	6.009	7.569	7.669	6.429	4.229	1.669	-0.641	-2.291	-3.211	-3.581	-3.721	-3.881	-5.376
65535
11.326	11.036	10.726	10.336	9.696	8.636	7.056	4.946	2.356	-0.664	-4.074	-7.814	-11.684	-15.234	-17.834	-18.814	5.934
65535
-28.994	-25.664	-20.494	-14.214	-7.644	-1.494	3.786	7.976	11.026	12.936	13.726	13.396	12.086	10.066	7.786	5.726	5.920
65535
4.290	3.650	3.760	4.280	4.800	4.920	4.440	3.350	1.810	0.040	-1.720	-3.400	-4.980	-6.560	-8.300	-10.380	-7.980
65535
0.930	-2.230	-5.870	-9.620	-12.910	-15.040	-15.410	-13.690	-9.960	-4.690	1.450	7.740	13.560	18.510	22.330	24.900	13.054
65535
5.156	5.266	4.446	3.056	1.506	0.136	-0.854	-1.424	-1.684	-1.774	-1.854	-1.964	-2.134	-2.334	-2.584	-2.954	-4.206
65535
13.696	12.716	11.306	9.506	7.456	5.336	3.296	1.406	-0.394	-2.184	-4.104	-6.294	-8.794	-11.574	-14.424	-16.954	-0.003
65535
-22.827	-23.097	-21.597	-18.297	-13.527	-7.907	-2.157	3.113	7.543	11.003	13.493	15.043	15.713	15.543	14.653	13.313	10.409
65535
1.441	0.221	-0.459	-0.499	0.011	0.821	1.631	2.161	2.281	1.981	1.321	0.421	-0.679	-1.959	-3.469	-5.219	-9.996
65535
13.276	11.346	9.556	8.026	6.706	5.436	3.986	2.176	-0.044	-2.584	-5.244	-7.804	-9.974	-11.504	-12.044	-11.304	3.534
65535
-22.634	-19.014	-14.304	-9.034	-3.844	0.756	4.426	7.056	8.686	9.396	9.296	8.516	7.246	5.756	4.356	3.346	5.204
65535
1.266	1.476	2.116	2.866	3.406	3.486	3.056	2.236	1.226	0.226	-0.674	-1.544	-2.554	-3.844	-5.454	-7.284	-14.861
65535
10.941	9.271	7.881	6.711	5.591	4.341	2.811	0.951	-1.199	-3.539	-5.859	-7.859	-9.089	-9.099	-7.529	-4.329	2.107
65535
-16.747	-11.437	-6.067	-1.257	2.593	5.253	6.703	6.973	6.243	4.763	2.903	1.133	-0.157	-0.707	-0.497	0.303	2.782
65535
0.768	1.948	2.938	3.618	3.958	3.988	3.748	3.248	2.448	1.278	-0.252	-2.062	-3.972	-5.782	-7.322	-8.552	-12.610
65535
5.810	4.810	3.610	2.080	0.210	-1.910	-4.070	-5.980	-7.310	-7.740	-6.990	-4.910	-1.530	2.920	7.970	13.030	4.873
65535
-0.003	3.307	5.197	5.667	4.937	3.407	1.497	-0.403	-2.013	-3.133	-3.713	-3.793	-3.513	-3.023	-2.483	-1.943	-2.049
65535
5.489	5.969	6.349	6.489	6.209	5.339	3.839	1.849	-0.381	-2.531	-4.341	-5.661	-6.481	-6.951	-7.311	-7.881	-9.879
65535
-1.171	-3.021	-5.541	-8.371	-10.911	-12.411	-12.261	-10.231	-6.511	-1.701	3.429	8.179	12.049	14.819	16.489	17.159	1.854
65535
5.236	4.356	2.986	1.346	-0.264	-1.584	-2.434	-2.704	-2.464	-1.884	-1.204	-0.624	-0.244	-0.084	-0.114	-0.314	-10.102
65535
11.232	10.502	9.392	7.872	6.022	3.992	1.932	0.012	-1.668	-3.078	-4.278	-5.418	-6.698	-8.248	-9.988	-11.578	-2.021
65535
-20.539	-20.169	-18.239	-14.829	-10.299	-5.249	-0.249	4.251	7.971	10.721	12.381	12.911	12.431	11.191	9.601	8.121	4.012
65535
1.038	0.558	0.558	0.788	1.018	1.098	1.038	0.908	0.808	0.728	0.568	0.168	-0.572	-1.632	-2.902	-4.172	-7.075
65535
5.745	4.735	3.875	3.125	2.445	1.765	1.005	0.025	-1.295	-2.915	-4.525	-5.615	-5.615	-4.155	-1.255	2.655	6.493
65535
-6.713	-2.923	-0.043	1.777	2.637	2.777	2.447	1.807	1.007	0.177	-0.513	-0.923	-0.963	-0.683	-0.203	0.327	2.510
65535
4.770	5.100	5.270	5.280	5.060	4.560	3.720	2.560	1.170	-0.330	-1.810	-3.260	-4.790	-6.610	-8.910	-11.780	-6.024
65535
-6.476	-9.586	-11.926	-12.896	-12.166	-9.816	-6.286	-2.226	1.734	5.184	7.944	10.004	11.374	12.044	11.964	11.134	-2.900
65535
6.510	4.570	2.460	0.480	-1.160	-2.310	-2.970	-3.180	-3.030	-2.600	-1.960	-1.140	-0.170	0.820	1.650	2.030	-11.304
65535
10.114	8.994	7.124	4.694	1.924	-0.996	-3.916	-6.616	-8.726	-9.816	-9.466	-7.456	-3.896	0.794	6.024	11.214	3.759
65535
0.761	4.391	6.751	7.661	7.111	5.321	2.731	-0.129	-2.729	-4.689	-5.789	-6.029	-5.509	-4.489	-3.249	-2.119	-3.563
65535
5.993	6.343	6.273	5.963	5.533	5.033	4.363	3.343	1.823	-0.247	-2.787	-5.507	-7.987	-9.657	-9.967	-8.507	15.998
65535
-24.718	-19.778	-13.878	-7.758	-2.108	2.602	6.152	8.472	9.582	9.582	8.672	7.212	5.612	4.232	3.282	2.832	30.868
65535
-12.028	-11.578	-10.638	-9.188	-7.258	-4.988	-2.628	-0.378	1.642	3.452	5.122	6.702	8.212	9.672	11.122	12.752	84.169
65535
-38.439	-35.469	-31.279	-25.609	-18.459	-10.039	-0.759	8.831	18.001	25.781	31.001	32.361	28.821	19.941	6.221	-10.899	-3.498
65535
58.338	40.718	25.568	13.718	5.158	-0.662	-4.492	-6.972	-8.522	-9.522	-10.442	-11.952	-14.722	-19.132	-25.092	-31.992	-71.981
65535
29.301	22.181	14.991	7.321	-0.919	-9.149	-16.089	-20.319	-21.019	-18.359	-13.389	-7.349	-1.089	5.131	11.361	17.391	-78.276
65535
28.766	31.726	31.576	28.016	21.546	13.246	4.276	-4.444	-12.234	-18.514	-22.684	-24.264	-23.324	-20.604	-17.524	-15.564	-82.694
65535
-11.316	-13.726	-17.636	-21.906	-25.476	-27.656	-28.096	-26.436	-22.176	-14.746	-3.836	10.234	26.454	43.344	59.394	73.574	28.624
65535
-25.844	-16.074	-8.064	-1.534	3.546	6.986	8.626	8.486	6.866	4.356	1.716	-0.204	-0.714	0.546	3.536	7.776	49.449
65535
-8.239	-3.459	0.971	5.001	8.701	11.981	14.441	15.471	14.471	11.151	5.661	-1.359	-9.039	-16.379	-22.549	-26.819	32.837
65535
-12.117	-11.537	-8.667	-4.117	1.213	6.283	10.163	12.203	12.203	10.363	7.183	3.263	-0.887	-4.917	-8.647	-11.987	6.349
65535
11.681	9.451	7.881	6.901	6.281	5.711	4.811	3.351	1.281	-1.249	-3.949	-6.519	-8.759	-10.629	-12.279	-13.959	-6.445
65535
-3.175	-5.695	-8.745	-12.045	-15.015	-16.925	-17.035	-14.865	-10.395	-4.065	3.325	10.805	17.495	22.725	26.105	27.505	8.106
65535
12.544	10.694	7.934	4.854	1.954	-0.426	-2.146	-3.216	-3.746	-3.896	-3.806	-3.666	-3.646	-3.866	-4.386	-5.186	-11.624
65535
13.544	12.374	10.994	9.324	7.324	5.004	2.534	0.164	-1.856	-3.416	-4.636	-5.836	-7.446	-9.736	-12.646	-15.686	-0.655
65535
-28.975	-29.665	-28.005	-23.775	-17.315	-9.475	-1.305	6.165	12.205	16.455	18.895	19.715	19.205	17.655	15.395	12.825	10.461
65535
-0.691	-2.441	-3.231	-2.981	-1.901	-0.411	1.069	2.219	2.939	3.189	3.009	2.419	1.419	0.059	-1.521	-3.151	-7.768
65535
13.518	12.038	10.568	8.958	7.098	4.988	2.738	0.508	-1.522	-3.282	-4.812	-6.242	-7.822	-9.742	-12.122	-14.862	-1.586
65535
-23.754	-25.824	-26.544	-25.314	-21.814	-16.174	-8.964	-1.024	6.696	13.376	18.496	21.836	23.436	23.476	22.196	19.896	9.378
65535
6.032	3.022	0.492	-1.088	-1.528	-0.988	0.052	0.982	1.402	1.172	0.482	-0.388	-1.208	-1.928	-2.718	-3.798	-12.751
65535
16.811	14.821	12.451	9.881	7.291	4.851	2.611	0.571	-1.349	-3.309	-5.439	-7.809	-10.329	-12.639	-14.169	-14.239	13.311
65535
-38.301	-33.931	-27.341	-19.111	-10.171	-1.541	5.899	11.589	15.319	17.189	17.479	16.529	14.769	12.599	10.419	8.609	19.530
65535
1.250	0.920	1.310	2.150	3.060	3.710	3.880	3.540	2.790	1.780	0.570	-0.850	-2.580	-4.680	-7.110	-9.740	-8.083
65535
15.243	12.803	10.653	8.753	6.973	5.113	3.073	0.843	-1.487	-3.737	-5.737	-7.417	-8.827	-10.187	-11.867	-14.187	-11.132
65535
-14.278	-18.068	-21.898	-24.868	-25.928	-24.288	-19.698	-12.528	-3.678	5.692	14.472	21.842	27.362	30.882	32.512	32.472	12.533
65535
7.457	5.237	2.677	0.257	-1.623	-2.793	-3.253	-3.123	-2.583	-1.763	-0.843	0.007	0.557	0.617	0.087	-0.923	-2.313
65535
12.663	11.383	10.183	8.993	7.623	5.873	3.733	1.363	-1.007	-3.157	-5.007	-6.647	-8.267	-10.117	-12.397	-15.207	-6.303
65535
-14.427	-17.707	-20.477	-22.027	-21.657	-18.997	-14.047	-7.327	0.323	7.893	14.473	19.463	22.663	24.163	24.283	23.403	10.308
65535
5.262	3.342	1.282	-0.678	-2.248	-3.218	-3.478	-3.038	-2.068	-0.838	0.362	1.262	1.682	1.572	0.932	-0.128	-5.161
65535
14.001	12.461	10.771	8.901	6.841	4.561	2.121	-0.309	-2.529	-4.369	-5.799	-6.919	-7.909	-9.019	-10.459	-12.339	-11.546
65535
-8.334	-11.154	-14.214	-17.134	-19.294	-19.934	-18.394	-14.344	-7.984	-0.054	8.316	16.006	22.176	26.406	28.696	29.246	8.680
65535
8.120	6.090	3.310	0.310	-2.330	-4.060	-4.580	-3.990	-2.690	-1.260	-0.170	0.370	0.450	0.310	0.150	-0.030	-8.140
65535
16.400	15.500	13.840	11.390	8.340	5.050	1.910	-0.780	-2.940	-4.650	-6.110	-7.570	-9.270	-11.320	-13.690	-16.100	0.010
65535
-26.200	-27.020	-26.090	-23.030	-17.870	-11.080	-3.470	4.020	10.570	15.590	18.770	20.110	19.770	18.090	15.470	12.370	5.639
65535
3.621	0.911	-1.079	-2.189	-2.409	-1.919	-1.009	0.021	0.881	1.421	1.601	1.461	1.071	0.401	-0.639	-2.139	-15.339
65535
16.809	14.349	11.689	9.089	6.769	4.819	3.179	1.659	0.029	-1.911	-4.301	-7.151	-10.251	-13.221	-15.411	-16.141	4.323
65535
-34.433	-30.683	-24.703	-17.073	-8.723	-0.623	6.377	11.717	15.197	16.817	16.787	15.377	12.957	9.947	6.857	4.197	6.281
65535
0.429	-0.371	-0.251	0.429	1.249	1.849	2.089	2.019	1.789	1.539	1.269	0.789	-0.151	-1.751	-4.041	-6.891	-17.674
65535
13.994	11.074	8.604	6.634	5.044	3.514	1.694	-0.616	-3.426	-6.436	-9.106	-10.766	-10.716	-8.456	-3.846	2.814	12.304
65535
-19.184	-10.904	-3.334	2.716	6.796	8.906	9.286	8.306	6.416	4.006	1.456	-0.874	-2.664	-3.664	-3.864	-3.404	5.673
65535
4.027	4.847	5.457	5.777	5.847	5.727	5.387	4.737	3.567	1.727	-0.783	-3.773	-6.903	-9.773	-12.093	-13.773	-13.696
65535
4.426	3.436	2.266	0.616	-1.644	-4.434	-7.454	-10.164	-11.884	-11.904	-9.714	-5.174	1.356	9.096	17.016	24.156	11.814
65535
4.296	8.106	9.996	10.106	8.696	6.126	2.856	-0.584	-3.664	-5.974	-7.314	-7.724	-7.424	-6.694	-5.814	-4.994	-1.889
65535
9.389	9.829	9.979	9.689	8.809	7.209	4.909	2.089	-0.891	-3.631	-5.851	-7.511	-8.791	-10.041	-11.591	-13.591	-3.588
65535
-14.282	-16.742	-18.802	-19.962	-19.752	-17.862	-14.162	-8.852	-2.372	4.618	11.408	17.358	21.998	25.028	26.358	26.018	9.820
65535
10.870	8.100	4.840	1.650	-1.000	-2.800	-3.690	-3.790	-3.340	-2.620	-1.830	-1.160	-0.750	-0.740	-1.280	-2.460	-12.489
65535
17.989	15.569	12.839	10.139	7.779	5.879	4.339	2.849	1.009	-1.471	-4.721	-8.561	-12.521	-15.891	-17.791	-17.441	6.654
65535
-33.494	-27.714	-19.884	-11.084	-2.514	4.806	10.276	13.696	15.186	14.956	13.316	10.626	7.316	3.976	1.186	-0.644	5.081
65535
0.229	0.469	1.279	2.249	3.059	3.569	3.789	3.789	3.569	3.029	1.979	0.239	-2.201	-5.201	-8.401	-11.441	-18.074
65535
9.114	7.064	5.424	3.894	2.094	-0.256	-3.266	-6.706	-9.996	-12.266	-12.566	-10.206	-5.056	2.354	10.944	19.424	12.618
65535
-4.028	1.312	4.612	6.102	6.132	5.082	3.302	1.142	-1.018	-2.808	-3.968	-4.378	-4.118	-3.398	-2.448	-1.518	-0.483
65535
12.283	12.613	12.433	11.713	10.403	8.513	6.043	3.093	-0.197	-3.607	-6.817	-9.567	-11.727	-13.407	-14.947	-16.827	-5.694
65535
-14.176	-17.366	-20.676	-23.166	-23.766	-21.666	-16.696	-9.386	-0.806	7.764	15.214	20.874	24.584	26.464	26.824	25.984	10.970
65535
7.610	5.400	3.080	1.080	-0.360	-1.140	-1.430	-1.480	-1.510	-1.590	-1.660	-1.610	-1.420	-1.250	-1.430	-2.290	-8.989
65535
15.959	13.499	10.649	7.879	5.609	4.019	3.009	2.229	1.199	-0.491	-3.071	-6.431	-10.131	-13.411	-15.351	-15.161	8.086
65535
-29.516	-24.366	-17.436	-9.726	-2.276	4.044	8.784	11.794	13.154	13.034	11.664	9.314	6.434	3.604	1.374	0.124	10.084
65535
-2.054	-1.364	-0.194	1.106	2.296	3.306	4.076	4.526	4.526	3.916	2.626	0.686	-1.744	-4.484	-7.284	-9.944	-12.472
65535
10.292	8.412	6.982	5.862	4.852	3.692	2.152	0.122	-2.378	-5.108	-7.598	-9.228	-9.328	-7.458	-3.488	2.222	11.638
65535
-15.178	-8.338	-2.228	2.612	5.922	7.712	8.142	7.422	5.772	3.512	0.972	-1.408	-3.228	-4.198	-4.178	-3.308	8.385
65535
1.355	2.865	4.095	4.795	4.945	4.655	4.105	3.405	2.535	1.365	-0.235	-2.295	-4.645	-7.025	-9.135	-10.785	-11.294
65535
7.694	6.734	5.724	4.324	2.364	-0.146	-3.016	-5.876	-8.276	-9.686	-9.636	-7.816	-4.166	1.034	7.184	13.564	11.388
65535
-3.278	1.442	4.702	6.452	6.782	5.912	4.122	1.752	-0.778	-3.038	-4.628	-5.298	-5.078	-4.178	-2.998	-1.888	3.779
65535
6.461	6.721	6.531	5.991	5.201	4.241	3.101	1.791	0.301	-1.339	-3.039	-4.699	-6.179	-7.439	-8.429	-9.209	-12.654
65535
6.554	5.814	4.804	3.314	1.184	-1.626	-4.876	-8.066	-10.506	-11.416	-10.246	-6.856	-1.606	4.774	11.374	17.384	9.634
65535
-0.044	3.416	5.416	6.006	5.296	3.526	1.106	-1.424	-3.514	-4.774	-5.054	-4.504	-3.394	-2.024	-0.634	0.606	2.055
65535
9.135	9.635	9.585	8.965	7.865	6.455	4.855	3.065	1.005	-1.395	-4.095	-6.885	-9.465	-11.565	-13.065	-14.095	-13.566
65535
0.666	-0.364	-1.874	-3.984	-6.564	-9.274	-11.564	-12.774	-12.334	-9.814	-5.194	1.146	8.386	15.556	21.726	26.256	10.373
65535
5.027	6.037	5.697	4.417	2.537	0.377	-1.723	-3.413	-4.393	-4.523	-3.873	-2.753	-1.573	-0.733	-0.443	-0.673	-1.349
65535
10.449	9.689	8.899	8.049	7.029	5.639	3.759	1.449	-1.091	-3.551	-5.641	-7.211	-8.291	-9.041	-9.691	-10.441	-10.443
65535
-2.287	-3.497	-5.017	-6.827	-8.847	-10.777	-12.097	-12.207	-10.537	-6.907	-1.537	4.893	11.473	17.353	21.913	24.903	8.078
65535
7.832	7.942	6.992	5.232	2.952	0.502	-1.778	-3.528	-4.538	-4.778	-4.418	-3.718	-2.948	-2.308	-1.858	-1.578	-1.668
65535
8.298	8.278	8.058	7.528	6.568	5.108	3.198	0.998	-1.242	-3.232	-4.812	-5.952	-6.792	-7.582	-8.562	-9.852	-6.938
65535
-6.232	-8.202	-10.332	-12.382	-13.962	-14.532	-13.602	-10.842	-6.312	-0.502	5.778	11.658	16.428	19.718	21.458	21.858	7.886
65535
6.414	5.094	3.364	1.464	-0.376	-1.956	-3.116	-3.716	-3.676	-3.046	-1.986	-0.776	0.254	0.844	0.864	0.354	-3.561
65535
10.931	9.881	8.761	7.551	6.151	4.471	2.531	0.461	-1.569	-3.379	-4.879	-6.109	-7.129	-8.089	-9.139	-10.449	-3.815
65535
-11.835	-13.715	-15.555	-16.835	-16.935	-15.345	-11.885	-6.775	-0.635	5.685	11.345	15.745	18.585	19.855	19.745	18.555	5.031
65535
7.729	5.249	2.589	0.059	-2.001	-3.351	-3.841	-3.501	-2.581	-1.381	-0.281	0.489	0.799	0.639	0.109	-0.721	-8.761
65535
11.991	10.631	8.961	6.941	4.641	2.211	-0.049	-1.849	-3.009	-3.519	-3.669	-3.909	-4.669	-6.169	-8.239	-10.289	1.959
65535
-22.219	-21.819	-19.379	-15.019	-9.299	-3.079	2.751	7.551	10.921	12.831	13.371	12.741	11.191	8.991	6.461	4.011	3.363
65535
0.607	-0.643	-1.043	-0.693	0.157	1.127	1.907	2.317	2.327	2.007	1.457	0.757	-0.193	-1.493	-3.223	-5.383	-14.349
65535
9.949	7.659	5.739	4.369	3.519	2.939	2.329	1.359	-0.121	-2.091	-4.311	-6.351	-7.691	-7.811	-6.331	-3.161	5.171
65535
-18.071	-12.541	-6.771	-1.431	2.989	6.189	8.059	8.639	8.059	6.539	4.409	2.039	-0.161	-1.871	-2.891	-3.191	0.797
65535
1.483	2.203	3.093	3.933	4.553	4.813	4.693	4.163	3.213	1.843	0.053	-2.127	-4.587	-7.077	-9.297	-10.957	-14.536
65535
3.346	2.826	2.426	1.736	0.406	-1.654	-4.234	-6.884	-8.954	-9.754	-8.774	-5.734	-0.814	5.426	12.156	18.486	8.007
65535
1.153	4.803	6.803	7.293	6.533	4.803	2.433	-0.227	-2.767	-4.767	-5.907	-6.067	-5.357	-4.127	-2.817	-1.787	-0.068
65535
6.908	7.168	7.268	7.308	7.248	6.828	5.798	3.968	1.428	-1.462	-4.272	-6.632	-8.412	-9.762	-10.972	-12.402	-5.684
65535
-8.646	-10.986	-13.586	-16.006	-17.636	-17.826	-16.126	-12.366	-6.796	0.004	7.254	14.144	19.984	24.294	26.814	27.474	8.139
65535
12.651	10.341	7.251	3.911	0.831	-1.689	-3.459	-4.449	-4.719	-4.439	-3.849	-3.189	-2.669	-2.339	-2.149	-2.029	-7.201
65535
13.301	12.991	12.081	10.401	7.971	5.121	2.271	-0.179	-2.099	-3.589	-4.909	-6.369	-8.169	-10.379	-12.919	-15.519	-0.300
65535
-24.640	-25.880	-25.500	-23.010	-18.330	-11.880	-4.510	2.780	9.100	13.960	17.230	19.060	19.640	19.100	17.580	15.300	9.366
65535
2.994	0.524	-1.246	-1.976	-1.646	-0.536	0.904	2.184	2.944	3.034	2.494	1.444	0.024	-1.686	-3.646	-5.816	-13.328
65535
14.538	12.148	9.858	7.788	6.018	4.518	3.198	1.878	0.378	-1.482	-3.802	-6.532	-9.412	-11.982	-13.572	-13.532	4.542
65535
-29.272	-24.972	-18.842	-11.602	-4.162	2.618	8.058	11.778	13.678	13.908	12.738	10.538	7.758	4.858	2.338	0.578	8.713
65535
-4.333	-4.053	-2.933	-1.343	0.377	1.957	3.237	4.147	4.627	4.587	3.897	2.517	0.527	-1.893	-4.443	-6.873	-9.056
65535
8.726	6.816	5.106	3.476	1.816	0.036	-1.974	-4.204	-6.464	-8.334	-9.214	-8.444	-5.594	-0.664	5.856	13.066	13.984
65535
-3.064	2.696	6.846	9.276	10.076	9.466	7.646	4.876	1.496	-2.034	-5.204	-7.544	-8.834	-9.114	-8.674	-7.904	-0.803
65535
7.603	8.043	8.133	7.853	7.223	6.213	4.743	2.813	0.523	-1.907	-4.207	-6.207	-7.877	-9.367	-10.897	-12.677	-8.699
65535
-6.911	-9.351	-12.001	-14.591	-16.721	-17.841	-17.291	-14.571	-9.531	-2.571	5.439	13.379	20.189	25.209	28.129	29.039	7.333
65535
12.157	9.907	6.667	2.947	-0.663	-3.633	-5.603	-6.433	-6.223	-5.263	-3.833	-2.223	-0.693	0.537	1.207	1.147	-9.297
65535
16.867	15.197	12.917	10.357	7.757	5.357	3.197	1.227	-0.713	-2.803	-5.213	-7.943	-10.833	-13.543	-15.553	-16.273	3.222
65535
-27.632	-24.312	-18.892	-11.912	-4.282	2.918	8.728	12.558	14.278	14.128	12.578	10.128	7.208	4.178	1.348	-1.022	-0.881
65535
1.411	0.561	0.531	1.161	2.201	3.311	4.141	4.401	3.951	2.851	1.241	-0.669	-2.749	-4.969	-7.369	-10.009	-11.958
65535
-1.782	-4.772	-7.802	-10.762	-13.482	-15.612	-16.662	-15.982	-13.072	-7.772	-0.492	7.888	16.208	23.408	28.738	31.948	13.373
65535
7.837	7.457	5.907	3.627	0.997	-1.573	-3.713	-5.123	-5.603	-5.183	-4.053	-2.523	-0.953	0.347	1.157	1.397	-0.124
65535
14.594	13.824	12.694	11.244	9.504	7.454	5.074	2.404	-0.476	-3.436	-6.416	-9.316	-11.996	-14.186	-15.496	-15.476	11.011
65535
-24.881	-21.361	-16.261	-10.151	-3.751	2.169	7.009	10.369	12.119	12.329	11.249	9.239	6.699	4.039	1.599	-0.411	7.448
65535
1.762	1.082	1.112	1.762	2.772	3.802	4.462	4.462	3.682	2.222	0.332	-1.688	-3.638	-5.488	-7.328	-9.308	-6.259
65535
2.129	-0.451	-3.281	-6.211	-9.031	-11.411	-12.911	-13.021	-11.321	-7.651	-2.281	4.139	10.669	16.409	20.749	23.469	10.719
65535
7.721	7.721	6.811	5.241	3.221	1.021	-1.049	-2.659	-3.599	-3.829	-3.539	-3.049	-2.709	-2.839	-3.579	-4.889	-8.679
65535
12.799	10.919	9.089	7.459	6.099	4.939	3.889	2.749	1.299	-0.701	-3.401	-6.631	-9.951	-12.581	-13.621	-12.351	10.090
65535
-27.250	-21.110	-13.560	-5.750	1.210	6.570	10.040	11.750	12.010	11.150	9.380	6.880	3.860	0.700	-2.040	-3.840	7.296
65535
-1.566	-0.876	0.604	2.304	3.684	4.434	4.444	3.834	2.764	1.424	-0.026	-1.456	-2.796	-4.066	-5.436	-7.276	-12.807
65535
10.097	6.117	0.867	-5.193	-11.113	-15.663	-17.753	-16.773	-12.903	-6.993	-0.253	6.157	11.437	15.267	17.717	18.987	6.973
65535
-0.413	-0.693	-1.353	-2.113	-2.713	-2.923	-2.643	-1.863	-0.713	0.647	1.967	2.977	3.467	3.257	2.327	0.787	-10.832
65535
16.632	14.442	12.162	9.812	7.352	4.692	1.762	-1.418	-4.738	-7.918	-10.568	-12.138	-12.158	-10.298	-6.508	-1.108	8.159
65535
-13.689	-7.069	-0.999	3.911	7.301	9.111	9.441	8.541	6.671	4.121	1.191	-1.809	-4.529	-6.599	-7.739	-7.859	-2.336
65535
3.346	4.486	5.566	6.206	6.236	5.676	4.736	3.536	2.186	0.666	-1.084	-3.074	-5.344	-7.944	-10.924	-14.264	-4.471
65535
-15.639	-18.869	-21.149	-21.799	-20.329	-16.669	-11.189	-4.569	2.391	8.911	14.431	18.571	21.181	22.251	21.931	20.551	7.296
65535
6.704	4.374	2.174	0.424	-0.716	-1.186	-1.066	-0.536	0.134	0.634	0.704	0.194	-0.836	-2.216	-3.696	-5.086	-11.449
65535
12.399	11.179	9.809	8.169	6.199	3.919	1.339	-1.501	-4.521	-7.511	-9.971	-11.261	-10.721	-7.951	-3.031	3.449	9.769
65535
-10.629	-3.829	1.841	5.911	8.251	8.931	8.211	6.391	3.851	1.011	-1.719	-3.989	-5.539	-6.329	-6.409	-5.959	0.049
65535
4.531	5.381	6.131	6.571	6.531	5.901	4.671	2.961	0.991	-0.999	-2.809	-4.409	-5.919	-7.589	-9.659	-12.289	-4.669
65535
-10.651	-13.831	-16.561	-18.191	-18.191	-16.241	-12.371	-6.981	-0.751	5.569	11.289	15.899	19.129	20.839	21.079	19.959	3.391
65535
9.619	6.569	3.209	0.059	-2.391	-3.861	-4.301	-3.851	-2.831	-1.581	-0.441	0.359	0.669	0.439	-0.281	-1.391	-12.064
65535
12.654	11.014	9.134	7.004	4.594	1.884	-1.066	-4.146	-7.076	-9.446	-10.726	-10.406	-8.206	-4.146	1.354	7.584	6.309
65535
-4.609	0.821	5.061	7.891	9.241	9.151	7.761	5.271	2.121	-1.169	-4.079	-6.219	-7.469	-7.959	-7.989	-7.819	-7.812
65535
6.492	6.682	6.872	7.012	6.982	6.612	5.782	4.462	2.742	0.682	-1.648	-4.288	-7.298	-10.598	-13.898	-16.588	2.237
65535
-27.987	-27.347	-24.377	-19.267	-12.637	-5.417	1.513	7.483	12.123	15.323	17.073	17.373	16.213	13.683	10.143	6.103	0.028
65535
4.452	1.422	-0.398	-0.918	-0.368	0.802	2.072	3.022	3.392	3.052	2.052	0.502	-1.428	-3.588	-5.868	-8.208	-13.126
65535
2.466	-0.254	-3.364	-6.854	-10.474	-13.704	-15.754	-15.864	-13.554	-8.834	-2.274	5.196	12.556	19.006	24.076	27.636	7.448
65535
9.092	9.662	8.822	6.752	3.802	0.552	-2.398	-4.498	-5.538	-5.608	-5.008	-4.148	-3.358	-2.828	-2.608	-2.688	-11.938
65535
16.288	15.498	14.238	12.478	10.248	7.568	4.518	1.178	-2.412	-6.142	-9.762	-12.852	-14.802	-14.972	-12.832	-8.242	10.994
65535
-24.484	-16.544	-8.444	-1.214	4.446	8.306	10.466	11.176	10.666	9.036	6.446	3.206	-0.154	-2.974	-4.724	-5.214	2.576
65535
3.774	4.884	5.954	6.544	6.484	5.854	4.834	3.604	2.204	0.644	-1.156	-3.226	-5.606	-8.346	-11.476	-14.976	-2.698
65535
-13.412	-16.972	-19.852	-21.412	-21.102	-18.582	-13.872	-7.432	-0.002	7.478	14.138	19.298	22.578	23.898	23.488	21.758	9.573
65535
6.947	4.107	1.407	-0.793	-2.293	-2.943	-2.803	-1.983	-0.773	0.467	1.367	1.637	1.147	-0.043	-1.743	-3.713	-10.218
65535
13.988	11.828	9.588	7.248	4.798	2.268	-0.352	-3.092	-5.902	-8.552	-10.542	-11.192	-9.882	-6.262	-0.532	6.588	12.510
65535
-8.640	-1.810	3.600	7.230	9.050	9.230	8.000	5.700	2.680	-0.570	-3.560	-5.780	-6.970	-7.060	-6.240	-4.860	4.074
65535
5.106	6.416	7.286	7.586	7.316	6.506	5.236	3.626	1.736	-0.314	-2.444	-4.624	-6.874	-9.304	-12.054	-15.194	-1.258
65535
-13.292	-16.652	-19.332	-20.562	-19.712	-16.492	-11.132	-4.372	2.788	9.308	14.458	17.908	19.708	20.108	19.408	17.868	7.441
65535
6.949	4.299	1.529	-0.941	-2.701	-3.511	-3.371	-2.501	-1.271	-0.041	0.929	1.459	1.439	0.779	-0.551	-2.491	-12.401
65535
14.981	12.441	9.951	7.621	5.391	3.031	0.341	-2.789	-6.179	-9.359	-11.599	-12.159	-10.519	-6.579	-0.739	6.171	9.308
65535
-8.508	-2.228	2.752	6.182	8.062	8.532	7.762	5.942	3.372	0.432	-2.438	-4.808	-6.338	-6.888	-6.478	-5.348	-0.586
65535
6.036	7.456	8.406	8.626	8.036	6.726	4.936	2.946	0.986	-0.864	-2.664	-4.584	-6.844	-9.624	-12.944	-16.634	-1.973
65535
-18.797	-21.547	-22.727	-21.787	-18.517	-13.197	-6.517	0.603	7.253	12.713	16.563	18.673	19.153	18.233	16.263	13.633	2.519
65535
6.251	3.471	1.101	-0.639	-1.629	-1.879	-1.529	-0.809	0.001	0.641	0.931	0.781	0.171	-0.849	-2.209	-3.809	-13.440
65535
10.380	8.460	6.380	4.080	1.450	-1.560	-4.850	-8.090	-10.720	-12.030	-11.410	-8.520	-3.510	3.000	10.100	16.840	8.070
65535
0.960	5.060	7.530	8.440	7.970	6.330	3.820	0.850	-2.090	-4.510	-6.100	-6.760	-6.610	-5.900	-4.960	-4.030	-3.618
65535
8.368	8.728	8.648	8.098	7.108	5.768	4.228	2.578	0.898	-0.842	-2.712	-4.812	-7.232	-9.992	-12.962	-15.862	0.494
65535
-22.344	-23.584	-23.124	-20.534	-15.804	-9.374	-2.104	4.926	10.716	14.656	16.636	16.946	16.066	14.456	12.396	10.066	6.055
65535
2.095	-0.105	-1.675	-2.245	-1.675	-0.175	1.735	3.445	4.415	4.395	3.405	1.675	-0.475	-2.745	-4.975	-7.095	-10.491
65535
7.411	5.421	3.431	1.431	-0.629	-2.779	-5.039	-7.269	-9.109	-10.019	-9.369	-6.689	-1.899	4.551	11.791	18.771	12.353
65535
1.747	5.837	8.087	8.677	7.957	6.267	3.897	1.157	-1.643	-4.093	-5.903	-6.853	-6.993	-6.583	-6.003	-5.563	-3.557
65535
10.437	10.157	9.577	8.797	7.867	6.747	5.347	3.597	1.477	-0.943	-3.553	-6.233	-8.953	-11.783	-14.753	-17.783	-2.601
65535
-21.469	-23.349	-23.769	-22.239	-18.599	-13.139	-6.479	0.561	7.141	12.611	16.571	18.911	19.751	19.341	18.021	16.131	7.239
65535
4.131	2.011	0.201	-1.059	-1.619	-1.479	-0.809	0.131	1.011	1.581	1.681	1.261	0.371	-0.879	-2.409	-4.129	-12.987
65535
14.227	12.257	10.167	7.917	5.447	2.717	-0.253	-3.363	-6.393	-8.993	-10.703	-11.053	-9.653	-6.313	-1.203	5.197	9.486
65535
-10.346	-3.736	1.814	5.804	8.054	8.624	7.784	5.894	3.394	0.714	-1.766	-3.756	-5.106	-5.806	-5.936	-5.626	0.118
65535
4.322	5.042	5.752	6.282	6.492	6.252	5.512	4.252	2.512	0.392	-1.978	-4.438	-6.818	-9.048	-11.168	-13.368	-6.913
65535
-8.827	-11.717	-14.787	-17.497	-19.057	-18.727	-16.067	-11.177	-4.637	2.633	9.673	15.753	20.443	23.563	25.143	25.293	9.403
65535
7.897	5.957	3.597	1.267	-0.633	-1.923	-2.583	-2.713	-2.483	-2.043	-1.513	-1.013	-0.673	-0.593	-0.893	-1.663	-11.032
65535
17.462	15.582	13.162	10.372	7.462	4.712	2.332	0.362	-1.328	-2.998	-4.918	-7.278	-10.038	-12.918	-15.358	-16.608	4.653
65535
-31.633	-28.593	-23.213	-16.053	-8.103	-0.453	6.007	10.797	13.827	15.227	15.237	14.107	12.077	9.487	6.807	4.467	5.848
65535
1.622	0.782	0.652	1.002	1.562	2.142	2.622	2.922	2.952	2.622	1.812	0.452	-1.478	-3.858	-6.548	-9.268	-16.253
65535
10.353	8.293	6.703	5.473	4.313	2.933	1.053	-1.387	-4.187	-6.917	-8.977	-9.707	-8.597	-5.407	-0.267	6.323	11.529
65535
-14.169	-6.979	-0.639	4.331	7.641	9.231	9.191	7.721	5.171	2.031	-1.109	-3.639	-5.119	-5.409	-4.719	-3.529	5.433
65535
3.757	4.607	5.037	5.187	5.217	5.177	4.957	4.317	3.087	1.227	-1.093	-3.653	-6.203	-8.563	-10.643	-12.423	-12.955
65535
4.455	3.125	1.815	0.305	-1.635	-4.085	-6.905	-9.655	-11.605	-11.925	-9.955	-5.455	1.195	9.105	17.105	24.115	14.904
65535
1.566	4.966	6.616	6.806	5.816	3.916	1.396	-1.324	-3.704	-5.284	-5.804	-5.334	-4.244	-2.954	-1.744	-0.684	16.068
65535
-0.798	0.372	1.652	2.842	3.652	3.852	3.332	2.202	0.712	-0.868	-2.268	-3.238	-3.578	-3.268	-2.548	-2.048	43.764
65535
-30.254	-32.334	-35.904	-39.904	-42.514	-41.694	-35.914	-24.804	-9.304	8.606	26.436	41.776	52.676	57.796	56.486	48.856	32.191
65535
47.429	30.779	12.759	-4.251	-18.221	-27.951	-33.151	-34.301	-32.221	-27.541	-20.341	-10.161	3.489	20.349	38.569	54.759	-29.889
65535
126.729	126.689	115.109	93.039	63.849	31.849	1.019	-25.861	-47.301	-62.641	-71.791	-75.201	-74.131	-70.561	-66.711	-64.091	-72.111
65535
-20.609	-19.349	-16.119	-9.459	0.601	12.331	23.011	29.911	31.351	27.101	18.241	6.581	-5.909	-17.509	-26.919	-33.249	-106.557
65535
-1.573	-0.913	2.387	6.907	10.947	13.037	12.367	9.037	3.897	-1.813	-6.893	-10.473	-12.063	-11.543	-8.923	-4.383	-38.239
65535
-66.561	-59.361	-51.911	-45.101	-39.551	-35.331	-31.771	-27.491	-20.781	-10.051	5.609	26.139	50.449	76.649	102.609	126.459	158.346
65535
-49.446	-32.056	-17.306	-4.216	7.864	18.874	27.944	33.714	34.974	31.184	22.754	10.994	-2.346	-15.636	-27.936	-39.356	-10.748
65535
118.188	105.038	89.128	70.038	48.338	25.318	2.498	-18.712	-37.172	-51.832	-61.702	-66.112	-65.092	-59.812	-52.452	-45.652	-25.574
65535
-26.666	-25.816	-27.356	-29.266	-29.396	-26.456	-20.336	-12.016	-2.806	6.304	14.894	22.994	30.624	37.414	42.604	45.284	-13.200
65535
32.540	29.190	23.610	16.930	10.240	4.310	-0.590	-4.540	-7.760	-10.430	-12.620	-14.310	-15.520	-16.350	-17.000	-17.700	-40.178
65535
8.388	7.278	6.148	5.218	4.658	4.478	4.418	4.048	2.868	0.578	-2.782	-6.682	-10.082	-11.752	-10.602	-6.172	0.434
65535
-39.414	-30.244	-20.784	-12.404	-5.914	-1.374	1.736	4.116	6.276	8.406	10.436	12.246	13.856	15.486	17.486	20.086	31.448
65535
-7.678	-4.008	-0.328	2.922	5.352	6.732	7.022	6.332	4.852	2.862	0.642	-1.548	-3.518	-5.168	-6.568	-7.898	8.616
65535
13.364	11.244	8.344	4.604	0.194	-4.486	-8.876	-12.256	-13.966	-13.556	-10.916	-6.376	-0.596	5.574	11.394	16.304	24.196
65535
4.484	7.004	8.284	8.334	7.234	5.164	2.484	-0.326	-2.786	-4.576	-5.606	-5.976	-5.966	-5.846	-5.846	-6.066	5.024
65535
12.616	11.866	10.836	9.526	7.946	6.166	4.276	2.386	0.526	-1.374	-3.434	-5.864	-8.754	-12.094	-15.654	-18.974	4.056
65535
-20.516	-21.606	-20.836	-18.106	-13.676	-8.176	-2.386	2.984	7.464	10.834	13.104	14.364	14.784	14.564	13.954	13.244	12.938
65535
3.812	3.552	3.562	3.732	3.922	4.012	3.922	3.582	2.872	1.672	-0.058	-2.228	-4.618	-7.028	-9.298	-11.418	-8.694
65535
8.154	6.054	3.864	1.584	-0.786	-3.186	-5.556	-7.666	-9.156	-9.576	-8.476	-5.646	-1.186	4.454	10.604	16.514	18.981
65535
-6.071	-2.141	0.609	2.309	3.179	3.369	2.959	2.019	0.749	-0.571	-1.581	-2.021	-1.811	-1.131	-0.281	0.409	5.914
65535
13.786	13.656	13.156	12.356	11.246	9.746	7.726	5.136	2.016	-1.464	-5.074	-8.684	-12.314	-16.114	-20.284	-24.884	-22.712
65535
-1.048	-5.468	-8.828	-10.558	-10.398	-8.538	-5.518	-2.028	1.362	4.242	6.462	7.952	8.702	8.712	8.052	6.902	-10.813
65535
-6.347	-7.487	-8.127	-8.057	-7.277	-5.907	-4.107	-1.997	0.313	2.703	5.003	6.973	8.353	8.973	8.853	8.133	-11.441
65535
7.731	6.621	5.521	4.431	3.231	1.831	0.171	-1.679	-3.609	-5.389	-6.729	-7.239	-6.509	-4.169	-0.029	5.811	25.534
65535
-24.114	-16.614	-9.534	-3.564	0.916	3.906	5.656	6.556	6.926	6.916	6.576	5.876	4.816	3.436	1.896	0.346	16.032
65535
8.498	7.458	6.748	6.238	5.688	4.858	3.618	2.038	0.328	-1.312	-2.772	-4.172	-5.752	-7.762	-10.322	-13.382	-5.786
65535
4.996	1.326	-2.464	-6.264	-9.824	-12.674	-14.244	-13.964	-11.564	-7.194	-1.454	4.836	10.806	15.826	19.626	22.226	19.285
65535
-1.265	-0.435	-0.185	-0.345	-0.805	-1.395	-1.865	-1.975	-1.595	-0.735	0.385	1.455	2.215	2.505	2.305	1.735	3.536
65535
16.614	15.494	14.184	12.724	11.164	9.574	7.894	5.974	3.524	0.254	-3.986	-9.076	-14.586	-19.786	-23.876	-26.096	-2.583
65535
-19.847	-17.317	-12.827	-7.197	-1.437	3.533	7.103	9.083	9.603	9.013	7.693	6.003	4.153	2.353	0.723	-0.637	-6.256
65535
2.046	1.486	1.386	1.716	2.356	3.086	3.626	3.676	3.106	1.926	0.296	-1.544	-3.394	-5.114	-6.654	-7.994	-18.490
65535
2.990	1.650	-0.060	-2.370	-5.300	-8.520	-11.340	-12.920	-12.560	-9.990	-5.420	0.510	7.010	13.390	19.100	23.830	2.606
65535
6.244	8.384	9.084	8.414	6.614	4.094	1.324	-1.256	-3.336	-4.766	-5.556	-5.816	-5.746	-5.636	-5.746	-6.296	-15.609
65535
10.789	9.159	7.219	5.249	3.579	2.359	1.569	0.989	0.269	-0.891	-2.611	-4.781	-6.991	-8.661	-9.181	-8.071	0.967
65535
-21.727	-17.217	-11.667	-5.777	-0.227	4.463	7.993	10.283	11.303	11.033	9.523	6.943	3.633	0.103	-3.117	-5.547	-5.718
65535
-0.282	-0.732	-0.412	0.318	1.168	1.918	2.438	2.678	2.618	2.238	1.498	0.438	-0.912	-2.492	-4.252	-6.222	-4.048
65535
-10.092	-12.482	-14.842	-16.752	-17.632	-16.922	-14.272	-9.752	-3.752	2.968	9.568	15.318	19.708	22.458	23.518	22.968	1.355
65535
15.565	12.405	8.535	4.535	0.975	-1.665	-3.195	-3.785	-3.795	-3.665	-3.695	-3.935	-4.275	-4.565	-4.705	-4.735	-11.526
65535
8.086	7.846	7.296	6.246	4.576	2.146	-1.004	-4.564	-7.934	-10.344	-11.064	-9.694	-6.234	-1.154	4.836	10.966	8.921
65535
-3.821	0.899	4.429	6.619	7.439	6.899	5.189	2.629	-0.281	-2.991	-4.961	-5.851	-5.641	-4.641	-3.401	-2.521	-6.454
65535
12.924	12.094	10.584	8.824	7.184	5.844	4.694	3.454	1.774	-0.536	-3.466	-6.836	-10.326	-13.526	-15.876	-16.806	7.839
65535
-30.059	-26.769	-21.359	-14.429	-6.849	0.381	6.531	11.191	14.241	15.721	15.671	14.151	11.301	7.511	3.331	-0.559	1.596
65535
2.644	0.744	0.004	0.164	0.884	1.774	2.534	2.944	2.894	2.404	1.504	0.264	-1.316	-3.276	-5.666	-8.506	-8.011
65535
-2.129	-5.639	-9.199	-12.549	-15.279	-16.889	-16.849	-14.759	-10.519	-4.459	2.761	10.221	17.081	22.661	26.621	28.921	11.350
65535
10.320	9.810	8.260	5.940	3.130	0.170	-2.480	-4.430	-5.390	-5.350	-4.580	-3.530	-2.700	-2.420	-2.850	-3.900	-7.067
65535
13.047	11.367	9.637	7.947	6.317	4.707	3.007	1.097	-1.133	-3.673	-6.373	-8.843	-10.523	-10.863	-9.453	-6.263	6.401
65535
-15.101	-9.681	-4.241	0.589	4.389	6.939	8.219	8.319	7.369	5.589	3.259	0.689	-1.771	-3.791	-5.131	-5.651	-2.709
65535
3.719	4.589	5.689	6.609	6.999	6.669	5.659	4.139	2.339	0.419	-1.611	-3.781	-6.181	-8.841	-11.731	-14.681	0.175
65535
-20.265	-22.245	-22.965	-21.965	-19.005	-14.195	-8.015	-1.175	5.555	11.525	16.275	19.525	21.095	20.915	19.065	15.875	1.766
65535
10.294	6.194	2.624	-0.036	-1.646	-2.346	-2.366	-1.996	-1.446	-0.886	-0.506	-0.406	-0.666	-1.276	-2.186	-3.356	-11.724
65535
8.694	6.844	4.444	1.384	-2.246	-6.136	-9.706	-12.296	-13.246	-12.136	-8.906	-3.886	2.314	8.934	15.254	20.694	6.664
65535
6.466	9.096	10.056	9.376	7.276	4.126	0.506	-2.964	-5.704	-7.344	-7.754	-7.104	-5.794	-4.334	-3.204	-2.694	-9.952
65535
13.712	12.912	11.732	10.352	8.832	7.122	5.142	2.802	0.082	-2.958	-6.218	-9.458	-12.298	-14.208	-14.588	-12.958	9.073
65535
-28.193	-22.463	-15.423	-7.983	-1.033	4.657	8.677	10.917	11.587	10.997	9.547	7.577	5.407	3.337	1.677	0.717	7.011
65535
2.679	3.369	4.539	5.679	6.289	6.059	5.029	3.449	1.699	0.039	-1.481	-3.031	-4.831	-7.071	-9.751	-12.671	7.556
65535
-16.126	-18.666	-20.546	-21.456	-21.066	-19.056	-15.186	-9.486	-2.326	5.554	13.174	19.614	24.234	26.804	27.564	26.964	38.681
65535
-5.561	-7.251	-8.831	-10.001	-10.511	-10.191	-8.961	-6.801	-3.871	-0.371	3.409	7.219	10.849	14.179	17.119	19.569	53.466
65535
6.554	7.424	7.274	6.164	4.414	2.494	0.774	-0.646	-1.996	-3.536	-5.256	-6.736	-7.216	-6.116	-3.466	-0.126	10.678
65535
45.222	45.472	42.432	36.022	26.972	16.422	5.532	-4.738	-13.738	-21.018	-26.308	-29.538	-30.898	-30.918	-30.458	-30.458	-40.451
65535
19.411	16.461	11.991	6.651	1.321	-3.229	-6.549	-8.599	-9.609	-9.799	-9.259	-7.939	-5.739	-2.639	1.351	6.171	-2.109
65535
-26.481	-19.931	-12.661	-5.071	2.249	8.599	13.339	16.069	16.639	15.109	11.779	7.089	1.579	-4.181	-9.671	-14.461	-7.461
65535
-12.719	-14.719	-14.689	-12.459	-8.309	-3.059	2.141	6.211	8.571	9.281	8.901	8.111	7.301	6.461	5.311	3.661	-19.931
65535
14.211	12.551	11.711	11.881	12.591	12.971	12.151	9.741	5.941	1.321	-3.669	-8.909	-14.529	-20.519	-26.349	-31.089	-59.564
65535
5.864	5.614	7.254	9.474	10.864	10.524	8.404	5.074	1.304	-2.346	-5.766	-8.966	-11.776	-13.526	-13.026	-8.976	35.154
65535
-95.124	-81.864	-64.734	-45.274	-25.314	-6.504	9.986	23.476	33.686	40.416	43.566	43.266	39.986	34.596	28.186	21.656	-55.514
65535
106.064	99.844	92.854	84.014	72.364	57.354	39.044	18.024	-4.676	-27.826	-50.156	-70.446	-87.706	-101.266	-110.876	-116.606	-79.028
65535
-95.132	-93.522	-88.152	-78.812	-65.592	-49.132	-30.752	-12.042	5.698	22.068	37.598	53.428	70.488	88.968	108.148	126.738	101.138
65535
-36.648	-22.368	-10.608	-1.018	6.732	12.682	16.592	18.212	17.532	14.942	11.032	6.302	1.042	-4.768	-11.248	-18.408	32.828
65535
42.332	34.852	27.962	21.962	16.872	12.432	8.202	3.802	-1.038	-6.388	-12.168	-18.188	-24.198	-30.048	-35.608	-40.788	-12.148
65535
-0.492	-4.502	-7.612	-9.582	-10.302	-9.762	-8.122	-5.622	-2.562	0.788	4.128	7.178	9.698	11.488	12.488	12.798	0.440
65535
0.040	-0.340	-0.700	-0.930	-1.000	-0.900	-0.660	-0.240	0.330	1.000	1.590	1.890	1.690	0.890	-0.460	-2.200	-19.390
65535
15.630	13.430	10.930	8.050	4.770	1.230	-2.230	-5.240	-7.470	-8.750	-9.010	-8.340	-6.830	-4.680	-2.110	0.620	-8.613
65535
-7.557	-5.287	-3.407	-1.877	-0.597	0.493	1.403	2.033	2.323	2.253	1.953	1.603	1.403	1.443	1.713	2.103	-3.801
65535
-2.269	-1.819	-1.349	-0.839	-0.259	0.321	0.871	1.331	1.601	1.681	1.521	1.091	0.441	-0.289	-0.899	-1.139	12.591
65535
-17.171	-16.081	-14.241	-11.781	-8.911	-5.881	-2.891	-0.071	2.539	4.969	7.229	9.309	11.139	12.689	13.999	15.149	33.218
65535
-4.358	-3.188	-1.938	-0.688	0.422	1.272	1.772	1.942	1.842	1.632	1.392	1.152	0.822	0.292	-0.568	-1.808	17.232
65535
12.608	10.808	8.868	6.938	5.108	3.558	2.388	1.638	1.188	0.728	-0.182	-2.012	-5.082	-9.542	-15.242	-21.772	-35.944
65535
24.614	18.214	12.714	8.404	5.254	3.064	1.494	0.194	-1.176	-2.886	-5.116	-7.836	-10.816	-13.616	-15.726	-16.776	-37.183
65535
-15.397	-14.267	-12.507	-10.537	-8.667	-7.057	-5.717	-4.517	-3.197	-1.397	1.273	5.113	10.153	16.093	22.363	28.273	-3.096
65535
-0.834	2.856	5.196	6.266	6.246	5.266	3.466	1.086	-1.474	-3.734	-5.254	-5.774	-5.294	-4.104	-2.634	-1.274	-3.869
65535
0.499	1.079	1.329	1.329	1.169	0.879	0.529	0.219	0.079	0.119	0.259	0.249	-0.211	-1.231	-2.591	-3.711	18.575
65535
-26.195	-24.525	-20.915	-15.655	-9.475	-3.255	2.305	6.775	10.025	12.125	13.185	13.345	12.745	11.555	9.945	8.015	6.787
65535
17.563	14.983	12.043	8.783	5.323	1.883	-1.347	-4.107	-6.227	-7.567	-8.097	-7.967	-7.397	-6.677	-5.947	-5.247	14.708
65535
-12.408	-11.478	-10.398	-9.198	-7.938	-6.548	-4.878	-2.768	-0.198	2.682	5.602	8.252	10.452	12.102	13.152	13.572	10.827
65535
17.173	16.153	14.463	12.293	9.873	7.403	4.923	2.373	-0.377	-3.357	-6.517	-9.657	-12.627	-15.277	-17.527	-19.317	-14.578
65535
4.818	4.118	3.958	4.188	4.518	4.668	4.328	3.348	1.688	-0.482	-2.882	-5.102	-6.742	-7.452	-7.122	-5.842	-8.672
65535
-9.768	-7.388	-4.888	-2.468	-0.278	1.492	2.702	3.232	3.142	2.642	2.052	1.622	1.522	1.712	2.102	2.572	-6.256
65535
0.646	1.196	1.796	2.456	3.096	3.566	3.716	3.406	2.596	1.346	-0.214	-1.914	-3.544	-4.994	-6.154	-6.994	-6.728
65535
-7.072	-7.442	-7.722	-7.932	-7.962	-7.602	-6.622	-4.892	-2.462	0.488	3.638	6.688	9.398	11.618	13.338	14.548	8.243
65535
0.327	0.687	0.717	0.517	0.217	-0.023	-0.103	0.037	0.307	0.567	0.607	0.337	-0.183	-0.823	-1.383	-1.803	1.540
65535
4.550	4.140	3.500	2.590	1.490	0.290	-0.890	-2.000	-3.030	-3.850	-4.250	-3.990	-2.900	-1.010	1.410	3.950	4.293
65535
3.457	5.167	6.237	6.727	6.737	6.307	5.427	4.077	2.277	0.087	-2.363	-4.853	-7.233	-9.293	-10.883	-11.873	-6.048
65535
-1.912	-1.782	-1.382	-1.022	-0.942	-1.182	-1.542	-1.692	-1.352	-0.442	0.828	2.068	2.878	3.038	2.608	1.838	3.698
65535
-8.628	-8.928	-8.608	-7.628	-6.028	-3.938	-1.538	0.972	3.332	5.302	6.622	7.162	6.952	6.162	5.022	3.772	0.040
65535
6.200	5.000	3.770	2.510	1.240	0.090	-0.820	-1.360	-1.560	-1.510	-1.430	-1.500	-1.800	-2.330	-2.950	-3.550	-7.451
65535
3.421	2.961	2.461	1.791	0.821	-0.439	-1.939	-3.459	-4.709	-5.339	-5.049	-3.669	-1.329	1.691	4.911	7.881	2.293
65535
0.517	2.187	3.227	3.757	3.857	3.527	2.707	1.407	-0.223	-1.883	-3.173	-3.833	-3.813	-3.303	-2.673	-2.283	-4.810
65535
4.780	4.330	3.630	2.890	2.270	1.780	1.330	0.820	0.170	-0.590	-1.430	-2.310	-3.220	-4.120	-4.930	-5.400	1.133
65535
-11.123	-9.943	-7.673	-4.523	-0.963	2.417	5.097	6.767	7.367	7.017	5.897	4.227	2.167	-0.083	-2.313	-4.343	-5.282
65535
0.432	-0.748	-1.438	-1.678	-1.548	-1.228	-0.878	-0.618	-0.488	-0.358	-0.088	0.432	1.162	1.932	2.482	2.632	2.015
65535
-4.935	-5.515	-6.205	-6.845	-7.315	-7.485	-7.155	-6.125	-4.215	-1.415	2.025	5.665	9.025	11.775	13.745	14.975	4.566
65535
12.984	12.924	12.214	10.814	8.824	6.384	3.724	1.034	-1.586	-4.066	-6.386	-8.476	-10.256	-11.706	-12.816	-13.616	-14.661
65535
5.071	4.741	4.581	4.531	4.471	4.291	3.861	3.091	1.931	0.341	-1.629	-3.889	-6.159	-7.999	-8.879	-8.359	1.382
65535
-22.342	-18.912	-14.542	-9.822	-5.262	-1.242	2.028	4.508	6.248	7.348	7.968	8.288	8.478	8.688	9.018	9.548	3.709
65535
7.901	8.641	9.231	9.461	9.081	8.001	6.251	3.991	1.391	-1.379	-4.189	-6.949	-9.559	-11.929	-14.039	-15.899	-4.511
65535
-9.369	-10.919	-12.269	-13.169	-13.249	-12.159	-9.759	-6.179	-1.819	2.771	7.101	10.901	14.041	16.511	18.281	19.281	5.696
65535
9.214	8.524	7.204	5.624	4.194	3.144	2.514	2.074	1.524	0.564	-0.986	-3.156	-5.816	-8.736	-11.626	-14.266	-27.469
65535
16.649	14.709	12.839	10.739	8.159	5.039	1.469	-2.251	-5.801	-8.831	-11.061	-12.161	-11.851	-9.921	-6.361	-1.371	-1.062
65535
-21.798	-15.358	-9.008	-3.188	1.832	5.852	8.732	10.332	10.522	9.322	6.972	3.942	0.852	-1.708	-3.348	-3.948	-9.490
65535
4.750	5.530	6.460	7.220	7.610	7.520	6.900	5.730	4.020	1.800	-0.920	-4.080	-7.610	-11.330	-15.040	-18.560	-14.245
65535
-17.085	-20.145	-23.085	-25.695	-27.415	-27.275	-24.205	-17.565	-7.545	4.615	16.895	27.195	33.975	36.795	36.375	34.165	47.048
65535
-29.548	-31.038	-31.148	-29.998	-27.968	-25.278	-21.858	-17.338	-11.278	-3.268	6.822	18.832	32.142	45.632	57.872	67.422	9.571
65535
110.639	112.119	109.449	103.189	93.929	81.999	67.169	48.719	25.619	-2.891	-36.701	-74.361	-113.011	-148.901	-178.321	-198.641	-115.846
65535
-83.484	-84.494	-78.154	-66.784	-52.434	-36.714	-20.734	-5.284	9.136	22.326	34.426	46.006	57.816	70.756	85.486	102.126	45.412
65535
-41.262	-23.592	-7.972	3.998	11.538	14.918	15.298	14.088	12.348	10.468	8.248	5.288	1.378	-3.302	-8.302	-13.142	8.403
65535
19.517	15.757	12.527	9.657	6.947	4.067	0.677	-3.413	-8.043	-12.543	-15.853	-16.763	-14.423	-8.653	0.027	10.507	58.331
65535
-28.401	-17.921	-8.721	-1.201	4.479	8.259	10.169	10.339	9.089	6.959	4.579	2.499	1.059	0.219	-0.351	-1.051	31.681
65535
24.419	22.669	20.459	18.009	15.469	12.789	9.719	5.999	1.429	-3.871	-9.541	-15.091	-20.061	-24.211	-27.611	-30.581	-9.509
65535
7.659	4.359	0.489	-3.971	-8.781	-13.511	-17.471	-19.831	-19.741	-16.601	-10.281	-1.281	9.379	20.389	30.479	38.719	30.444
65535
4.666	8.136	9.356	8.676	6.596	3.676	0.606	-2.004	-3.724	-4.504	-4.604	-4.504	-4.624	-5.144	-5.924	-6.674	7.430
65535
15.860	15.640	15.390	14.630	12.920	10.110	6.370	2.120	-2.060	-5.720	-8.610	-10.800	-12.650	-14.700	-17.420	-21.080	-2.784
65535
-15.296	-19.866	-23.666	-25.696	-25.236	-21.956	-16.116	-8.406	0.224	8.774	16.364	22.314	26.254	28.054	27.924	26.324	16.529
65535
4.571	1.961	-0.229	-1.629	-2.159	-1.939	-1.249	-0.379	0.421	1.031	1.371	1.391	1.031	0.191	-1.209	-3.179	-9.064
65535
19.994	17.254	14.414	11.664	9.104	6.724	4.364	1.794	-1.216	-4.776	-8.726	-12.536	-15.426	-16.516	-15.116	-10.996	15.247
65535
-28.707	-20.427	-11.467	-2.927	4.283	9.523	12.513	13.323	12.323	10.043	7.053	3.883	0.903	-1.647	-3.647	-5.027	6.039
65535
3.431	3.271	3.611	4.241	4.891	5.291	5.201	4.471	3.141	1.311	-0.809	-3.029	-5.239	-7.449	-9.809	-12.519	-18.659
65535
8.939	5.029	0.439	-4.741	-10.171	-15.291	-19.271	-21.211	-20.271	-16.061	-8.751	0.849	11.469	21.719	30.429	36.889	16.618
65535
5.612	7.412	7.462	6.352	4.542	2.412	0.242	-1.728	-3.318	-4.388	-4.888	-4.868	-4.478	-3.908	-3.378	-3.078	-6.318
65535
19.728	18.958	17.428	15.138	12.208	8.898	5.508	2.258	-0.772	-3.632	-6.512	-9.662	-13.302	-17.512	-22.122	-26.602	2.356
65535
-38.746	-40.146	-38.616	-33.776	-25.926	-16.026	-5.386	4.744	13.434	20.204	24.924	27.714	28.754	28.274	26.564	24.004	12.519
65535
10.881	7.991	5.531	3.701	2.491	1.751	1.251	0.811	0.291	-0.379	-1.229	-2.369	-3.939	-6.039	-8.749	-11.989	-24.970
65535
21.900	18.200	14.610	11.270	8.150	5.080	1.760	-2.020	-6.260	-10.620	-14.360	-16.480	-16.060	-12.510	-5.860	3.200	11.744
65535
-23.204	-12.944	-3.904	3.156	7.926	10.446	10.946	9.866	7.656	4.826	1.876	-0.774	-2.834	-4.124	-4.604	-4.304	4.523
65535
3.867	5.227	6.677	7.857	8.437	8.227	7.207	5.477	3.257	0.727	-1.983	-4.823	-7.783	-10.843	-14.043	-17.483	-13.455
65535
-3.315	-7.605	-12.235	-16.735	-20.285	-21.905	-20.795	-16.685	-9.985	-1.665	7.105	15.205	21.865	26.705	29.615	30.715	5.976
65535
10.814	9.104	6.594	3.754	1.014	-1.276	-2.946	-3.916	-4.216	-3.946	-3.306	-2.566	-1.996	-1.826	-2.176	-3.106	-21.237
65535
22.617	20.567	17.997	15.017	11.747	8.347	4.917	1.437	-2.243	-6.283	-10.643	-14.873	-18.143	-19.433	-17.883	-13.143	7.821
65535
-34.581	-25.031	-14.781	-5.061	3.139	9.239	13.019	14.569	14.179	12.279	9.399	6.069	2.799	0.009	-2.031	-3.221	-0.506
65535
4.666	4.736	4.946	4.976	4.666	4.006	3.186	2.336	1.536	0.716	-0.324	-1.764	-3.754	-6.404	-9.734	-13.794	-15.346
65535
-3.724	-9.044	-14.524	-19.544	-23.194	-24.594	-23.084	-18.464	-11.144	-2.074	7.566	16.626	24.286	30.166	34.206	36.536	6.008
65535
15.902	15.112	12.972	9.812	6.122	2.482	-0.638	-3.018	-4.658	-5.758	-6.518	-7.128	-7.668	-8.238	-8.928	-9.848	-20.393
65535
15.343	13.903	12.313	10.663	8.953	7.013	4.593	1.443	-2.457	-6.847	-11.087	-14.277	-15.417	-13.767	-8.997	-1.377	14.525
65535
-26.645	-16.125	-5.965	2.765	9.295	13.315	14.835	14.155	11.725	8.085	3.825	-0.485	-4.255	-7.065	-8.595	-8.865	2.975
65535
3.455	4.815	6.265	7.355	7.795	7.465	6.385	4.705	2.625	0.395	-1.865	-4.145	-6.555	-9.345	-12.705	-16.645	-2.278
65535
-15.702	-19.922	-23.352	-25.222	-24.822	-21.732	-15.992	-8.202	0.578	9.168	16.518	22.038	25.588	27.318	27.478	26.258	10.654
65535
10.906	7.546	3.666	-0.114	-3.164	-5.024	-5.524	-4.824	-3.364	-1.624	-0.054	1.016	1.406	1.076	-0.034	-1.884	-14.071
65535
20.261	17.061	13.401	9.491	5.481	1.431	-2.659	-6.709	-10.479	-13.449	-14.929	-14.229	-11.019	-5.439	1.861	9.921	9.339
65535
-5.659	1.121	6.331	9.641	10.961	10.301	7.931	4.351	0.241	-3.579	-6.459	-7.999	-8.219	-7.469	-6.279	-5.209	-10.949
65535
15.589	15.379	14.459	13.009	11.279	9.409	7.429	5.199	2.499	-0.871	-4.991	-9.711	-14.641	-19.061	-22.091	-22.881	3.372
65535
-35.162	-30.242	-22.952	-14.292	-5.442	2.568	9.018	13.588	16.198	16.918	15.918	13.498	10.148	6.468	3.128	0.638	-3.491
65535
6.081	5.661	5.891	6.351	6.631	6.471	5.751	4.521	2.931	1.121	-0.829	-2.999	-5.639	-9.099	-13.639	-19.199	-7.165
65535
-21.595	-27.225	-31.295	-32.735	-30.965	-25.935	-18.155	-8.555	1.795	11.815	20.595	27.485	32.105	34.465	34.775	33.425	10.202
65535
13.548	10.338	6.898	3.708	1.188	-0.392	-1.022	-0.992	-0.752	-0.772	-1.302	-2.382	-3.892	-5.742	-7.922	-10.512	-17.668
65535
14.258	10.598	6.368	1.598	-3.642	-9.122	-14.302	-18.312	-20.092	-18.752	-13.972	-6.162	3.548	13.758	23.198	31.028	20.208
65535
-1.008	2.872	4.972	5.492	4.622	2.662	0.062	-2.568	-4.578	-5.478	-5.088	-3.608	-1.598	0.292	1.452	1.492	-6.758
65535
27.308	25.168	22.378	19.288	16.118	12.908	9.478	5.588	1.028	-4.302	-10.282	-16.492	-22.312	-26.932	-29.532	-29.402	5.896
65535
-38.896	-32.886	-24.706	-15.446	-6.296	1.734	7.974	12.164	14.404	14.974	14.344	12.984	11.404	10.024	9.184	9.034	16.025
65535
-0.615	0.295	1.325	2.225	2.845	3.205	3.365	3.385	3.215	2.715	1.725	0.145	-1.995	-4.545	-7.285	-10.005	-14.369
65535
17.809	15.459	13.279	11.129	8.769	5.869	2.169	-2.371	-7.381	-12.111	-15.531	-16.651	-14.801	-9.881	-2.401	6.639	16.839
65535
-15.149	-6.489	0.541	5.431	8.031	8.481	7.121	4.521	1.351	-1.619	-3.709	-4.479	-3.859	-2.159	0.001	1.991	14.490
65535
5.690	6.230	6.080	5.520	4.880	4.320	3.820	3.230	2.320	0.930	-0.960	-3.270	-5.820	-8.440	-11.010	-13.520	-12.741
65535
11.191	8.581	5.811	2.781	-0.559	-4.209	-7.949	-11.279	-13.509	-13.869	-11.819	-7.299	-0.779	6.871	14.581	21.461	12.389
65535
1.731	5.341	7.101	7.121	5.691	3.261	0.401	-2.269	-4.239	-5.249	-5.299	-4.639	-3.619	-2.569	-1.689	-1.069	-0.609
65535
12.299	12.409	12.179	11.479	10.179	8.189	5.499	2.339	-1.021	-4.221	-7.011	-9.261	-11.021	-12.501	-13.941	-15.601	-9.927
65535
-8.333	-10.813	-13.553	-16.153	-17.983	-18.363	-16.693	-12.723	-6.693	0.657	8.337	15.307	20.767	24.327	25.967	25.947	5.058
65535
9.702	7.592	5.042	2.362	-0.128	-2.158	-3.528	-4.138	-4.028	-3.418	-2.568	-1.748	-1.108	-0.708	-0.548	-0.628	-10.748
65535
14.778	13.938	12.558	10.658	8.368	5.958	3.708	1.778	0.148	-1.472	-3.502	-6.312	-9.942	-13.952	-17.442	-19.272	1.230
65535
-30.510	-26.850	-20.690	-13.020	-5.100	1.930	7.400	11.060	13.020	13.530	12.920	11.460	9.420	7.160	5.010	3.260	1.289
65535
2.031	1.441	1.301	1.441	1.711	2.061	2.421	2.731	2.821	2.511	1.621	0.111	-1.919	-4.279	-6.769	-9.229	-16.808
65535
6.538	4.358	2.318	0.348	-1.692	-3.902	-6.282	-8.612	-10.392	-10.942	-9.632	-6.062	-0.322	7.008	14.938	22.328	10.349
65535
1.031	4.791	6.391	6.191	4.771	2.741	0.521	-1.549	-3.249	-4.379	-4.799	-4.489	-3.579	-2.399	-1.329	-0.669	-6.489
65535
16.239	15.709	14.619	12.979	10.789	8.039	4.889	1.569	-1.631	-4.511	-7.011	-9.301	-11.631	-14.161	-16.931	-19.651	-2.021
65535
-26.209	-26.949	-25.699	-22.129	-16.469	-9.409	-1.969	4.881	10.471	14.521	17.061	18.281	18.331	17.311	15.331	12.641	1.320
65535
6.270	3.340	0.920	-0.740	-1.530	-1.520	-0.930	-0.030	0.840	1.420	1.540	1.100	0.090	-1.470	-3.500	-5.800	-16.974
65535
10.104	7.814	5.704	3.654	1.414	-1.256	-4.406	-7.756	-10.676	-12.326	-11.936	-9.086	-3.856	3.134	10.934	18.534	7.546
65535
0.554	5.524	8.744	10.284	10.314	9.014	6.594	3.394	-0.196	-3.636	-6.446	-8.326	-9.206	-9.296	-8.926	-8.396	-8.683
65535
8.323	8.683	8.843	8.723	8.153	7.043	5.373	3.293	1.073	-1.087	-3.137	-5.227	-7.667	-10.677	-14.137	-17.567	-1.470
65535
-27.350	-28.120	-26.460	-22.210	-15.870	-8.350	-0.780	5.940	11.260	15.060	17.450	18.550	18.400	16.990	14.430	11.060	-0.584
65535
6.604	3.514	1.454	0.604	0.784	1.554	2.364	2.784	2.584	1.764	0.444	-1.186	-2.976	-4.836	-6.746	-8.716	-12.524
65535
1.134	-1.126	-3.616	-6.376	-9.356	-12.276	-14.626	-15.666	-14.676	-11.166	-5.226	2.574	11.224	19.644	26.944	32.584	11.425
65535
12.365	14.115	13.995	12.185	9.055	5.115	0.955	-2.835	-5.815	-7.765	-8.715	-8.875	-8.615	-8.305	-8.245	-8.615	-15.304
65535
17.324	16.194	14.804	13.164	11.214	8.844	5.974	2.644	-1.096	-5.126	-9.206	-12.966	-15.816	-17.086	-16.156	-12.716	5.879
65535
-28.149	-20.759	-12.679	-4.899	1.831	7.091	10.711	12.681	13.041	11.871	9.401	6.021	2.341	-0.959	-3.259	-4.289	-3.186
65535
4.946	5.846	6.806	7.266	6.916	5.806	4.276	2.686	1.256	-0.014	-1.344	-3.014	-5.294	-8.284	-11.924	-15.924	-1.147
65535
-21.783	-24.703	-25.963	-24.963	-21.503	-15.833	-8.663	-0.933	6.437	12.767	17.677	20.997	22.727	22.897	21.637	19.207	6.329
65535
8.571	5.251	2.361	0.361	-0.559	-0.519	0.141	0.951	1.481	1.451	0.801	-0.399	-2.009	-3.879	-5.919	-8.089	-8.472
65535
4.422	2.052	-0.438	-3.048	-5.838	-8.738	-11.478	-13.478	-14.008	-12.348	-8.168	-1.678	6.352	14.812	22.622	28.962	14.021
65535
10.919	13.399	14.029	13.019	10.599	7.079	2.909	-1.321	-5.031	-7.761	-9.311	-9.811	-9.681	-9.431	-9.501	-10.111	-9.388
65535
12.198	10.848	9.488	8.288	7.198	6.068	4.688	2.868	0.528	-2.312	-5.502	-8.692	-11.352	-12.772	-12.242	-9.302	12.485
65535
-25.845	-18.725	-10.815	-3.255	3.065	7.655	10.465	11.665	11.505	10.145	7.785	4.725	1.425	-1.535	-3.635	-4.625	5.066
65535
2.804	3.394	4.054	4.384	4.244	3.774	3.254	2.894	2.694	2.394	1.604	-0.066	-2.796	-6.506	-10.836	-15.286	2.108
65535
-16.318	-19.288	-20.738	-20.258	-17.678	-13.128	-7.108	-0.418	6.032	11.472	15.382	17.602	18.222	17.472	15.652	13.092	5.159
65535
7.151	4.351	2.041	0.501	-0.229	-0.249	0.131	0.591	0.821	0.701	0.211	-0.589	-1.609	-2.869	-4.459	-6.489	-3.828
65535
-0.082	-3.182	-6.662	-10.222	-13.402	-15.642	-16.322	-14.972	-11.402	-5.842	1.088	8.468	15.368	20.988	24.898	26.918	9.534
65535
13.786	12.446	9.866	6.436	2.636	-1.014	-3.994	-5.884	-6.554	-6.124	-5.004	-3.724	-2.794	-2.554	-3.124	-4.394	-10.841
65535
14.201	12.091	9.781	7.301	4.621	1.691	-1.499	-4.829	-8.009	-10.529	-11.829	-11.339	-8.759	-4.119	2.091	9.131	6.772
65535
-1.542	4.508	9.048	11.718	12.418	11.218	8.408	4.458	0.008	-4.222	-7.562	-9.632	-10.392	-10.182	-9.492	-8.762	-6.420
65535
4.960	5.260	5.450	5.610	5.710	5.630	5.230	4.400	3.080	1.220	-1.160	-3.990	-7.040	-9.870	-11.920	-12.570	2.513
65535
-20.333	-17.263	-12.583	-6.913	-1.023	4.327	8.557	11.287	12.387	11.897	10.007	7.027	3.387	-0.413	-3.853	-6.493	-5.207
65535
-0.343	-0.823	-0.423	0.467	1.427	2.157	2.527	2.577	2.467	2.247	1.887	1.177	-0.083	-2.093	-4.873	-8.293	-4.108
65535
-13.132	-16.702	-19.462	-20.732	-19.942	-16.842	-11.612	-4.922	2.278	9.008	14.548	18.468	20.628	21.078	19.938	17.408	-1.306
65535
11.026	6.886	2.796	-0.634	-2.904	-3.804	-3.414	-2.144	-0.564	0.726	1.286	0.956	-0.134	-1.684	-3.374	-5.024	-11.548
65535
3.608	1.838	-0.322	-2.992	-6.152	-9.492	-12.472	-14.342	-14.352	-12.002	-7.172	-0.322	7.648	15.658	22.708	28.168	9.296
65535
10.884	12.604	12.614	11.164	8.494	4.924	0.894	-3.036	-6.296	-8.456	-9.336	-9.046	-7.986	-6.676	-5.616	-5.136	-10.521
65535
14.441	13.601	12.331	10.821	9.201	7.461	5.491	3.161	0.341	-3.029	-6.779	-10.499	-13.589	-15.319	-15.089	-12.549	6.606
65535
-24.936	-18.486	-11.196	-4.006	2.274	7.054	10.084	11.354	11.044	9.454	6.994	4.114	1.354	-0.826	-2.056	-2.216	3.394
65535
1.756	3.106	4.576	5.776	6.436	6.436	5.826	4.706	3.206	1.416	-0.564	-2.734	-5.174	-8.004	-11.394	-15.374	-5.644
65535
-10.756	-15.136	-18.836	-21.086	-21.246	-19.026	-14.576	-8.406	-1.256	6.044	12.734	18.194	22.034	24.044	24.284	22.984	6.328
65535
8.582	5.532	2.412	-0.278	-2.158	-3.018	-2.878	-1.938	-0.628	0.592	1.312	1.292	0.492	-0.988	-2.988	-5.348	-14.653
65535
12.993	10.123	7.063	3.863	0.563	-2.787	-6.077	-9.047	-11.277	-12.217	-11.337	-8.367	-3.427	2.963	10.023	16.943	8.625
65535
-0.225	4.655	8.035	9.775	9.845	8.345	5.555	2.035	-1.565	-4.595	-6.605	-7.495	-7.525	-7.095	-6.655	-6.485	-6.297
65535
8.277	7.857	7.327	6.797	6.287	5.727	4.977	3.897	2.327	0.157	-2.623	-5.823	-9.003	-11.533	-12.703	-11.943	7.547
65535
