1500966272.000 -1500966144.000 -64.000 0.000 0.000 0.000 0.000 0.000 0.000 0.000 0.000 0.000 0.000 0.010 0.000 -0.010 -0.030 -0.020 0.000 0.050 0.130 0.230 0.300 0.350 0.360 0.350 0.340 0.340 0.390 0.450 0.560 0.620 5.060 0.600 0.540 0.480 0.470 0.530 0.630 0.830 0.950 0.950 0.840 0.680 0.580 0.620 0.890 1.310 17.910 2.410 2.580 2.480 2.200 1.990 2.110 2.640 3.490 4.730 5.610 5.950 5.730 5.140 4.610 4.560 79.340 6.370 8.050 9.240 9.620 9.110 8.040 6.980 6.550 7.450 7.020 8.870 11.310 13.840 15.180 13.600 228.250 -2.890 -16.830 -31.660 -44.110 -52.710 -56.980 -58.010 -57.500 -56.720 -56.070 -55.140 -53.370 -50.130 -45.960 -41.080 -486.500 -29.240 -21.490 -11.990 -0.740 11.590 24.160 35.540 44.790 51.430 55.430 57.180 57.210 55.970 53.710 50.580 -5.900 41.480 35.850 29.920 24.150 18.880 14.310 10.460 7.220 4.380 1.820 -0.500 -2.560 -4.280 -5.580 -6.470 156.150 -7.340 -7.510 -7.610 -7.670 -7.690 -7.640 -7.530 -7.360 -7.120 -6.850 -6.580 -6.300 -6.000 -5.700 -5.390 46.780 -4.750 -4.440 -4.140 -3.840 -3.540 -3.260 -2.980 -2.720 -2.440 -2.190 -1.940 -1.710 -1.480 -1.280 -1.100 4.050 -0.780 -0.650 -0.530 -0.440 -0.350 -0.290 -0.220 -0.180 -0.140 -0.100 -0.070 -0.040 -0.020 -0.020 -0.020 0.150 -0.070 -0.070 -0.060 -0.030 0.010 0.040 0.060 0.030 -0.010 -0.040 -0.060 -0.040 0.000 0.060 0.090 0.150 0.040 -0.040 -0.120 -0.150 -0.110 0.000 0.140 0.240 0.240 0.090 -0.120 -0.330 -0.410 -0.330 -0.050 -0.470 0.530 0.530 0.260 -0.190 -0.630 -0.820 -0.660 -0.160 0.460 0.910 0.950 0.520 -0.230 -0.930 -1.270 -2.230 -0.340 0.530 1.210 1.430 1.100 0.320 -0.790 -2.180 -3.600 -4.550 -4.260 -2.240 1.420 5.740 9.110 10.870 8.490 4.690 0.350 -2.960 -4.440 -4.370 -3.590 -2.950 -2.760 -2.750 -2.420 -1.590 -0.480 0.370 0.610 -2.690 -0.480 -1.040 -1.130 -0.720 -0.030 0.580 0.890 0.800 0.440 -0.020 -0.280 -0.300 -0.070 0.310 0.680 -2.160 0.800 0.400 -0.230 -0.810 -1.090 -0.810 0.030 1.300 2.670 3.730 4.200 3.980 3.140 1.890 0.510 16.820 -1.640 -2.170 -2.350 -2.230 -1.890 -1.410 -0.860 -0.320 0.200 0.590 0.820 0.850 0.710 0.480 0.360 8.310 0.460 0.580 0.630 0.450 0.010 -0.610 -1.290 -1.780 -1.910 -1.720 -1.400 -1.240 -1.470 -2.080 -2.750 -8.980 -3.050 -2.430 -1.540 -0.770 -0.340 -0.290 -0.410 -0.540 -0.620 -0.740 -1.040 -1.470 -1.750 -1.520 -0.480 -24.650 3.450 5.360 6.580 6.840 6.310 5.320 4.210 3.170 2.180 1.170 0.090 -0.970 -1.850 -2.390 -2.500 10.080 -1.660 -0.930 -0.190 0.370 0.650 0.570 0.240 -0.170 -0.430 -0.410 -0.200 0.050 0.030 -0.370 -1.120 4.560 -2.530 -2.630 -2.290 -1.720 -1.250 -1.120 -1.300 -1.660 -1.930 -2.050 -1.990 -1.950 -2.000 -2.130 -2.090 -25.700 -0.500 1.200 3.180 4.960 6.200 6.660 6.430 5.650 4.570 3.320 2.000 0.640 -0.640 -1.750 -2.560 10.710 -2.880 -2.400 -1.590 -0.670 0.170 0.710 0.880 0.740 0.470 0.260 0.210 0.220 0.160 -0.140 -0.670 4.890 -1.780 -2.020 -2.010 -1.870 -1.760 -1.730 -1.820 -1.890 -1.910 -1.880 -1.920 -2.130 -2.520 -2.960 -3.170 -29.420 -2.040 -0.540 1.380 3.390 5.160 6.410 6.950 6.770 6.010 4.840 3.540 2.290 1.220 0.380 -0.210 15.590 -0.640 -0.570 -0.470 -0.500 -0.700 -1.050 -1.330 -1.340 -1.000 -0.410 0.170 0.460 0.320 -0.190 -0.860 6.060 -1.780 -1.960 -2.120 -2.350 -2.630 -2.820 -2.740 -2.410 -1.890 -1.470 -1.380 -1.730 -2.400 -3.120 -3.520 -31.580 -2.390 -0.800 1.250 3.470 5.510 7.070 7.910 7.930 7.230 5.960 4.390 2.750 1.260 0.060 -0.790 17.920 -1.550 -1.600 -1.550 -1.450 -1.280 -1.040 -0.720 -0.320 0.070 0.400 0.610 0.660 0.520 0.220 -0.230 9.840 -1.440 -2.050 -2.520 -2.770 -2.850 -2.740 -2.560 -2.410 -2.300 -2.250 -2.320 -2.510 -2.860 -3.300 -3.630 -32.280 -2.930 -1.440 0.720 3.230 5.560 7.300 8.200 8.270 7.710 6.750 5.530 4.130 2.580 0.920 -0.660 21.680 -2.670 -2.830 -2.500 -1.890 -1.280 -0.840 -0.640 -0.640 -0.720 -0.750 -0.690 -0.520 -0.320 -0.200 -0.270 4.330 -1.140 -1.800 -2.460 -2.900 -3.060 -2.930 -2.650 -2.380 -2.310 -2.490 -2.890 -3.270 -3.370 -2.930 -1.750 -33.840 2.550 5.080 7.220 8.560 8.820 8.080 6.600 4.860 3.210 1.800 0.580 -0.570 -1.670 -2.610 -3.120 12.460 -2.540 -1.730 -0.970 -0.480 -0.200 -0.050 0.140 0.330 0.370 0.150 -0.400 -1.150 -1.880 -2.430 -2.730 -3.900 -2.780 -2.760 -2.860 -3.120 -3.540 -4.050 -4.390 -4.230 -3.250 -1.310 1.390 4.360 6.960 8.650 9.220 3.170 7.670 6.250 4.770 3.330 1.920 0.540 -0.770 -1.900 -2.710 -3.100 -3.100 -2.710 -2.080 -1.310 -0.560 9.490 0.470 0.570 0.350 -0.130 -0.830 -1.640 -2.430 -3.060 -3.430 -3.550 -3.470 -3.360 -3.370 -3.610 -4.100 -26.800 -5.110 -5.010 -4.090 -2.220 0.450 3.520 6.420 8.650 9.890 10.120 9.550 8.480 7.120 5.600 3.980 32.810 0.530 -1.070 -2.360 -3.300 -3.720 -3.720 -3.320 -2.670 -1.940 -1.230 -0.700 -0.380 -0.320 -0.560 -1.060 5.220 -2.570 -3.280 -3.780 -3.960 -3.890 -3.680 -3.550 -3.720 -4.290 -5.320 -6.550 -7.560 -7.890 -7.090 -5.020 -68.840 1.620 4.850 7.120 8.100 7.870 6.740 5.190 3.600 2.170 1.010 0.170 -0.240 -0.020 0.950 2.660 -12.170 7.180 9.070 10.250 10.710 10.580 10.100 9.430 8.460 7.170 5.400 3.250 0.870 -1.480 -3.520 -5.050 64.280 -6.330 -6.280 -6.050 -5.840 -5.870 -6.200 -6.720 -7.300 -7.680 -7.550 -6.640 -4.800 -2.090 1.150 4.290 -2.850 8.140 8.290 7.500 6.190 4.770 3.440 2.200 0.960 -0.310 -1.580 -2.580 -3.170 -3.250 -2.880 -2.320 20.810 -1.370 -1.200 -1.170 -1.170 -1.090 -0.900 -0.670 -0.540 -0.590 -0.860 -1.280 -1.790 -2.210 -2.480 -2.560 -1.530 -2.280 -2.080 -1.950 -1.980 -2.270 -2.810 -3.520 -4.180 -4.480 -4.120 -2.890 -0.820 1.850 4.660 7.070 -12.700 9.110 8.550 7.200 5.470 3.680 2.110 0.840 -0.150 -0.910 -1.470 -1.760 -1.730 -1.380 -0.850 -0.320 15.710 0.110 0.060 -0.040 -0.070 -0.010 -0.020 -0.160 -0.480 -0.960 -1.460 -1.910 -2.270 -2.530 -2.700 -2.800 -2.300 -2.670 -2.520 -2.440 -2.480 -2.680 -3.030 -3.470 -3.870 -4.060 -3.840 -2.980 -1.370 0.900 3.490 5.950 -19.590 8.680 8.640 7.810 6.540 5.050 3.560 2.140 0.850 -0.240 -1.030 -1.510 -1.700 -1.670 -1.510 -1.300 13.690 -0.690 -0.280 0.160 0.520 0.750 0.790 0.580 0.180 -0.390 -1.020 -1.630 -2.060 -2.270 -2.240 -2.050 2.180 -1.780 -1.940 -2.270 -2.680 -2.990 -3.110 -2.980 -2.710 -2.440 -2.390 -2.600 -3.070 -3.520 -3.600 -2.950 -40.280 0.870 3.520 6.060 7.960 8.950 8.970 8.130 6.710 4.940 3.120 1.460 0.120 -0.790 -1.260 -1.400 15.780 -1.160 -1.010 -0.880 -0.730 -0.470 -0.130 0.250 0.600 0.800 0.780 0.500 0.010 -0.600 -1.200 -1.650 8.990 -2.000 -2.030 -2.080 -2.210 -2.400 -2.510 -2.480 -2.270 -1.960 -1.720 -1.660 -1.820 -2.160 -2.590 -3.030 -27.260 -3.340 -2.850 -1.670 0.200 2.590 5.090 7.170 8.420 8.640 7.920 6.570 4.910 3.240 1.670 0.260 20.620 -1.840 -2.370 -2.470 -2.200 -1.710 -1.210 -0.800 -0.540 -0.350 -0.140 0.090 0.270 0.300 0.120 -0.180 7.080 -0.770 -0.980 -1.250 -1.660 -2.200 -2.690 -2.880 -2.710 -2.240 -1.800 -1.600 -1.830 -2.410 -3.080 -3.540 -28.100 -2.920 -1.660 0.130 2.270 4.390 6.140 7.240 7.510 7.010 5.900 4.510 3.060 1.740 0.670 -0.130 17.090 -0.980 -1.130 -1.200 -1.250 -1.320 -1.420 -1.440 -1.390 -1.190 -0.870 -0.500 -0.130 0.130 0.200 0.050 4.350 -0.780 -1.310 -1.780 -2.080 -2.180 -2.120 -1.950 -1.840 -1.870 -2.160 -2.650 -3.240 -3.680 -3.660 -2.910 -31.190 0.940 3.480 5.740 7.240 7.720 7.230 6.100 4.760 3.510 2.470 1.490 0.440 -0.770 -2.020 -2.970 10.810 -3.050 -2.210 -1.160 -0.290 0.200 0.320 0.280 0.270 0.380 0.490 0.470 0.190 -0.330 -0.950 -1.460 2.190 -1.870 -1.840 -1.780 -1.740 -1.740 -1.770 -1.800 -1.830 -1.950 -2.220 -2.700 -3.290 -3.790 -3.820 -3.080 -34.480 0.860 3.360 5.520 6.940 7.520 7.390 6.770 5.820 4.650 3.250 1.760 0.350 -0.800 -1.520 -1.890 13.560 -1.820 -1.530 -1.140 -0.690 -0.270 -0.030 -0.040 -0.270 -0.580 -0.810 -0.910 -0.910 -0.940 -1.120 -1.370 -0.450 -1.640 -1.500 -1.300 -1.220 -1.400 -1.810 -2.290 -2.650 -2.790 -2.780 -2.760 -2.750 -2.630 -2.130 -0.950 -30.120 3.260 5.530 7.230 8.020 7.860 6.980 5.700 4.290 2.880 1.470 0.090 -1.270 -2.430 -3.130 -3.230 10.430 -1.770 -0.750 -0.010 0.320 0.250 -0.010 -0.220 -0.340 -0.400 -0.550 -0.900 -1.390 -1.850 -2.120 -2.110 -3.310 -1.650 -1.540 -1.620 -1.850 -2.100 -2.280 -2.390 -2.540 -2.890 -3.440 -4.020 -4.240 -3.690 -2.070 0.460 -35.720 6.230 8.170 9.000 8.740 7.740 6.330 4.830 3.340 1.900 0.530 -0.680 -1.580 -2.100 -2.170 -1.860 11.350 -0.850 -0.450 -0.220 -0.070 0.170 0.470 0.800 0.980 0.840 0.380 -0.270 -0.940 -1.490 -1.830 -2.070 4.530 -2.500 -2.700 -2.840 -2.870 -2.810 -2.740 -2.750 -2.940 -3.240 -3.620 -3.960 -4.100 -3.780 -2.800 -1.050 -38.830 4.100 6.660 8.540 9.400 9.200 8.170 6.660 5.030 3.540 2.260 1.120 0.090 -0.880 -1.710 -2.320 18.390 -2.640 -2.370 -1.890 -1.290 -0.640 -0.030 0.460 0.740 0.790 0.600 0.190 -0.330 -0.960 -1.600 -2.200 4.550 -2.940 -3.000 -2.840 -2.610 -2.380 -2.240 -2.130 -2.050 -1.920 -1.820 -1.850 -2.120 -2.570 -3.010 -3.130 -34.700 -1.400 0.510 2.840 5.180 7.160 8.470 8.930 8.530 7.420 5.800 4.020 2.310 0.860 -0.290 -1.160 22.720 -2.100 -2.180 -1.950 -1.490 -0.920 -0.390 -0.070 0.010 -0.110 -0.290 -0.420 -0.480 -0.540 -0.700 -1.000 8.660 -1.870 -2.280 -2.560 -2.770 -2.990 -3.190 -3.360 -3.330 -3.110 -2.730 -2.390 -2.300 -2.560 -3.000 -3.280 -36.030 -1.780 0.290 2.930 5.620 7.850 9.200 9.550 8.980 7.710 5.980 4.010 2.010 0.170 -1.340 -2.380 19.840 -3.090 -3.020 -2.760 -2.420 -1.950 -1.400 -0.790 -0.260 0.090 0.260 0.250 0.120 -0.050 -0.280 -0.540 3.190 -1.060 -1.260 -1.410 -1.550 -1.720 -1.960 -2.280 -2.670 -3.110 -3.600 -4.010 -4.140 -3.680 -2.360 -0.190 -29.240 5.390 7.660 8.950 9.130 8.310 6.850 5.110 3.310 1.550 -0.110 -1.630 -2.840 -3.600 -3.780 -3.350 9.230 -1.380 -0.430 0.210 0.390 0.220 -0.140 -0.470 -0.660 -0.700 -0.690 -0.750 -1.030 -1.490 -2.050 -2.550 -5.170 -3.010 -3.040 -3.050 -3.180 -3.460 -3.830 -4.220 -4.420 -4.220 -3.420 -1.890 0.300 2.920 5.560 7.790 -17.080 9.820 9.490 8.470 6.950 5.150 3.220 1.340 -0.300 -1.610 -2.450 -2.800 -2.710 -2.210 -1.410 -0.510 13.660 0.830 0.950 0.700 0.250 -0.170 -0.420 -0.550 -0.620 -0.840 -1.230 -1.820 -2.470 -3.070 -3.560 -3.900 -6.390 -4.260 -4.300 -4.300 -4.340 -4.440 -4.540 -4.430 -3.810 -2.380 -0.110 2.760 5.740 8.290 9.960 10.560 4.160 8.970 7.350 5.570 3.770 2.080 0.510 -0.830 -1.850 -2.440 -2.530 -2.220 -1.710 -1.190 -0.810 -0.560 17.930 -0.090 0.180 0.340 0.290 -0.060 -0.650 -1.280 -1.890 -2.400 -2.820 -3.140 -3.340 -3.350 -3.130 -2.810 -8.690 -2.230 -2.140 -2.160 -2.240 -2.380 -2.670 -3.110 -3.630 -3.960 -3.760 -2.700 -0.740 1.940 4.870 7.440 -17.010 9.750 9.300 8.060 6.440 4.740 3.120 1.640 0.280 -0.940 -1.920 -2.540 -2.660 -2.310 -1.590 -0.720 13.740 0.700 1.040 1.160 1.090 0.850 0.470 -0.060 -0.670 -1.290 -1.840 -2.270 -2.620 -2.920 -3.190 -3.360 -2.570 -3.220 -2.880 -2.480 -2.220 -2.250 -2.650 -3.280 -3.930 -4.260 -4.020 -3.020 -1.280 1.040 3.600 6.030 -19.430 9.090 9.210 8.410 6.910 5.030 3.160 1.490 0.150 -0.930 -1.760 -2.360 -2.610 -2.420 -1.840 -0.970 11.040 0.530 0.810 0.780 0.590 0.420 0.320 0.250 0.060 -0.390 -1.100 -2.020 -2.890 -3.490 -3.700 -3.500 -5.290 -2.390 -1.860 -1.560 -1.620 -2.110 -2.960 -3.980 -4.810 -5.020 -4.250 -2.340 0.480 3.760 6.830 9.090 -7.880 9.970 8.720 6.830 4.710 2.670 0.920 -0.470 -1.490 -2.110 -2.320 -2.170 -1.760 -1.260 -0.820 -0.570 12.480 -0.460 -0.400 -0.180 0.190 0.550 0.750 0.680 0.250 -0.430 -1.250 -2.040 -2.690 -3.160 -3.430 -3.470 -5.900 -2.900 -2.410 -1.980 -1.810 -2.010 -2.620 -3.490 -4.340 -4.850 -4.630 -3.470 -1.350 1.480 4.570 7.280 -19.280 9.880 9.450 8.190 6.490 4.750 3.190 1.950 0.960 0.120 -0.650 -1.370 -1.990 -2.360 -2.370 -2.000 13.620 -0.600 0.040 0.430 0.560 0.450 0.210 -0.060 -0.290 -0.460 -0.560 -0.680 -0.940 -1.510 -2.360 -3.360 0.300 -4.600 -4.410 -3.760 -2.930 -2.310 -2.140 -2.420 -2.980 -3.590 -4.000 -4.080 -3.660 -2.710 -1.100 1.120 -39.500 6.470 8.650 9.850 9.790 8.540 6.500 4.270 2.420 1.250 0.790 0.810 1.000 1.110 0.990 0.720 24.070 0.220 0.220 0.460 0.900 1.470 2.040 2.440 2.620 2.530 2.200 1.740 1.360 1.160 1.220 1.510 48.000 2.070 2.160 2.150 2.220 2.530 3.120 3.870 4.370 3.990 2.020 -2.060 -8.280 -15.870 -23.310 -28.720 -32.200 -27.810 -21.180 -11.970 -2.030 6.990 13.930 18.150 19.500 18.160 14.720 10.110 5.390 1.490 -1.180 -2.650 6.160 -3.340 -3.050 -2.500 -1.830 -1.420 -1.650 -2.710 -4.200 -5.420 -5.670 -4.680 -2.830 -0.970 0.050 -0.190 -35.790 -3.430 -5.130 -6.190 -6.490 -6.180 -5.480 -4.610 -3.630 -2.670 -1.830 -1.220 -0.910 -0.790 -0.630 -0.200 -84.470 2.100 3.820 5.630 7.250 8.440 9.020 8.900 8.080 6.710 5.070 3.480 2.220 1.530 1.510 2.240 -4.740 6.060 9.200 13.010 17.050 20.640 22.920 23.200 21.140 17.040 11.520 5.380 -0.680 -6.170 -10.750 -14.100 114.800 -16.050 -14.670 -12.360 -10.020 -8.450 -8.080 -8.850 -10.150 -11.220 -11.420 -10.320 -7.960 -4.690 -1.070 2.210 -13.700 5.820 5.900 5.070 3.680 2.010 0.260 -1.440 -2.900 -4.010 -4.590 -4.660 -4.310 -3.740 -3.190 -2.760 -25.010 -2.190 -1.870 -1.410 -0.800 -0.090 0.600 1.230 1.710 2.020 2.190 2.220 2.150 1.920 1.470 0.800 -15.220 -1.280 -2.410 -3.260 -3.580 -3.140 -1.860 0.120 2.560 5.030 7.070 8.320 8.600 7.980 6.730 5.180 24.490 2.290 1.140 0.130 -0.820 -1.700 -2.470 -3.010 -3.170 -3.010 -2.610 -2.110 -1.680 -1.410 -1.270 -1.210 2.400 -1.180 -1.270 -1.540 -1.980 -2.580 -3.100 -3.550 -3.920 -4.360 -4.950 -5.630 -6.060 -5.800 -4.520 -2.210 -49.500 3.750 6.180 7.730 8.400 8.400 7.990 7.250 6.130 4.470 2.290 -0.180 -2.570 -4.390 -5.340 -5.320 -9.250 -3.250 -1.870 -0.620 0.220 0.550 0.310 -0.410 -1.440 -2.540 -3.340 -3.650 -3.370 -2.660 -1.820 -1.210 -35.470 -1.590 -2.430 -3.260 -3.580 -3.060 -1.610 0.560 3.080 5.500 7.490 8.840 9.510 9.460 8.750 7.420 15.240 3.600 1.690 0.140 -0.890 -1.470 -1.860 -2.290 -2.870 -3.410 -3.590 -3.130 -1.990 -0.470 0.940 1.810 3.400 1.500 0.770 0.030 -0.630 -1.250 -1.900 -2.570 -3.100 -3.270 -2.840 -1.700 0.050 2.230 4.520 6.550 9.840 8.820 8.860 8.230 7.150 5.770 4.190 2.430 0.490 -1.550 -3.500 -5.040 -5.950 -6.120 -5.570 -4.530 20.210 -2.130 -1.190 -0.550 -0.170 0.050 0.250 0.550 0.960 1.360 1.530 1.250 0.390 -0.920 -2.390 -3.580 11.470 -3.820 -2.590 -0.640 1.750 4.170 6.260 7.700 8.330 8.170 7.420 6.360 5.220 4.100 2.980 1.730 68.880 -1.360 -2.980 -4.340 -5.200 -5.520 -5.380 -5.010 -4.680 -4.550 -4.600 -4.640 -4.500 -4.070 -3.370 -2.600 4.060 -1.840 -2.150 -2.880 -3.860 -4.830 -5.550 -5.810 -5.470 -4.410 -2.660 -0.270 2.510 5.330 7.750 9.370 -0.770 9.410 8.020 6.030 3.780 1.440 -0.910 -3.150 -5.100 -6.510 -7.130 -6.950 -6.130 -5.020 -3.910 -3.030 -22.260 -1.750 -1.260 -0.960 -1.020 -1.630 -2.680 -3.840 -4.720 -4.950 -4.400 -3.190 -1.620 0.100 1.840 3.620 -43.320 7.100 8.390 8.990 8.710 7.650 6.070 4.350 2.760 1.430 0.400 -0.350 -0.770 -0.740 -0.220 0.640 12.670 2.090 1.760 0.410 -1.780 -4.280 -6.360 -7.380 -7.100 -5.680 -3.710 -1.930 -0.960 -1.080 -2.180 -3.810 -34.640 -6.200 -6.040 -4.720 -2.380 0.750 4.260 7.760 10.740 12.760 13.460 12.710 10.680 7.780 4.620 1.740 32.860 -1.640 -1.890 -1.290 -0.060 1.440 2.780 3.450 3.090 1.480 -1.210 -4.560 -7.890 -10.530 -12.010 -12.110 -19.040 -8.850 -6.140 -3.220 -0.310 2.260 4.240 5.370 5.500 4.730 3.380 1.880 0.640 -0.170 -0.590 -0.900 -12.480 -1.760 -2.240 -2.430 -2.060 -1.150 0.200 1.630 2.770 3.380 3.400 2.990 2.390 1.790 1.320 0.830 -1.290 -0.930 -2.430 -4.170 -5.810 -6.910 -7.130 -6.290 -4.400 -1.750 1.250 4.120 6.400 7.810 8.150 7.530 0.170 3.950 1.580 -0.730 -2.660 -3.960 -4.480 -4.240 -3.400 -2.220 -0.970 0.170 1.100 1.830 2.360 2.770 -5.740 3.040 2.740 1.990 0.690 -1.140 -3.170 -4.880 -5.600 -4.880 -2.580 0.860 4.630 7.820 9.720 10.090 22.660 7.110 4.720 2.190 -0.230 -2.420 -4.240 -5.440 -5.850 -5.450 -4.460 -3.240 -2.130 -1.360 -1.020 -1.000 -1.370 -1.510 -1.740 -1.770 -1.530 -1.050 -0.560 -0.310 -0.480 -1.020 -1.560 -1.580 -0.720 1.040 3.370 5.630 2.080 7.830 7.420 6.200 4.520 2.620 0.650 -1.320 -3.110 -4.570 -5.460 -5.710 -5.330 -4.580 -3.720 -2.920 -7.630 -1.570 -0.820 0.000 0.750 1.180 1.140 0.550 -0.500 -1.820 -3.140 -4.160 -4.560 -4.040 -2.460 0.070 -23.850 6.120 8.350 9.370 9.120 7.820 5.870 3.630 1.320 -0.880 -2.870 -4.380 -5.200 -5.230 -4.520 -3.380 -0.860 -1.100 -0.370 0.080 0.340 0.520 0.620 0.670 0.560 0.240 -0.400 -1.370 -2.550 -3.700 -4.330 -4.080 -18.480 -0.460 2.330 5.000 6.980 7.920 7.750 6.580 4.650 2.260 -0.330 -2.750 -4.730 -5.940 -6.240 -5.640 -5.490 -2.860 -1.390 -0.310 0.290 0.520 0.560 0.600 0.760 1.040 1.280 1.360 1.120 0.560 -0.230 -0.950 -4.550 -1.240 -0.360 1.260 3.460 5.870 8.050 9.570 10.130 9.550 8.020 5.720 2.970 0.120 -2.420 -4.310 46.610 -5.050 -3.830 -1.860 0.370 2.420 3.970 4.910 5.330 5.380 5.210 4.900 4.450 3.780 2.830 1.660 81.550 -0.400 -0.520 0.410 2.460 5.380 8.530 11.090 12.160 11.130 7.830 2.590 -3.920 -10.900 -17.670 -23.720 57.280 -32.330 -34.220 -34.110 -31.940 -28.050 -23.140 -17.980 -13.300 -9.480 -6.580 -4.390 -2.600 -0.950 0.610 1.900 -176.780 2.000 0.440 -1.500 -2.580 -1.570 2.160 8.180 14.990 20.660 23.520 22.790 18.610 12.020 4.370 -2.880 -64.110 -12.000 -13.310 -13.310 -13.240 -14.280 -16.890 -20.610 -24.140 -25.790 -24.140 -18.350 -8.530 4.150 17.790 30.040 -177.720 43.940 45.730 46.450 48.260 52.090 56.840 59.910 58.640 51.800 40.540 27.810 16.870 9.760 6.670 6.170 400.270 6.250 4.810 1.950 -2.630 -9.460 -18.850 -30.400 -42.470 -52.690 -58.720 -59.310 -54.810 -47.130 -38.980 -32.810 -64.850 -30.040 -31.990 -33.960 -34.500 -32.890 -29.360 -24.740 -20.090 -16.290 -13.730 -12.190 -10.830 -8.290 -3.190 5.450 -343.870 32.070 46.450 57.930 64.200 64.300 58.990 50.410 41.250 33.700 28.670 25.750 23.560 20.600 15.850 9.170 230.150 -7.280 -15.020 -21.100 -24.920 -26.230 -25.210 -22.540 -19.170 -16.080 -13.870 -12.720 -12.160 -11.570 -10.270 -7.830 -19.960 0.690 6.240 11.820 16.320 18.490 17.360 12.640 5.110 -3.590 -11.510 -17.130 -19.890 -20.240 -19.150 -17.720 -57.200 -16.360 -17.060 -19.220 -23.240 -29.390 -37.050 -44.560 -49.300 -48.430 -40.120 -24.520 -3.910 17.770 36.390 49.290 -251.030 57.670 57.270 57.210 58.890 62.100 65.030 64.920 59.040 46.050 26.800 4.460 -16.490 -31.830 -39.370 -39.550 146.370 -28.160 -21.770 -16.440 -11.990 -8.270 -5.640 -4.820 -6.310 -9.480 -12.760 -14.040 -11.770 -5.520 3.520 13.220 27.250 25.570 26.050 23.400 19.240 15.160 12.190 10.510 9.510 8.310 6.320 3.420 0.020 -3.140 -5.490 -6.730 164.400 -7.460 -8.260 -9.960 -12.400 -15.020 -17.130 -18.230 -18.240 -17.380 -16.020 -14.590 -13.500 -13.180 -14.080 -16.180 -66.100 -20.740 -20.110 -15.710 -7.500 3.200 14.080 22.790 27.820 28.920 26.940 23.340 19.390 15.780 12.550 9.240 79.150 0.220 -5.750 -12.130 -18.100 -22.880 -26.090 -27.760 -28.180 -27.590 -26.080 -23.450 -19.490 -14.110 -7.560 -0.350 -173.450 12.570 16.360 17.400 15.590 11.380 5.660 -0.570 -6.560 -11.890 -16.440 -20.190 -22.950 -24.570 -24.900 -24.140 -269.510 -21.660 -21.370 -22.270 -24.050 -25.770 -25.950 -22.940 -15.460 -3.320 12.300 29.030 44.040 55.030 60.990 62.480 -127.320 58.730 56.770 55.870 55.920 56.240 55.680 52.950 46.990 37.400 24.740 10.590 -3.070 -14.590 -23.080 -28.610 283.510 -32.910 -32.520 -30.580 -27.190 -22.730 -17.910 -13.430 -9.720 -6.880 -4.690 -2.910 -1.280 0.230 1.410 1.950 85.780 -0.390 -3.440 -7.150 -10.650 -13.000 -13.480 -12.020 -9.100 -5.610 -2.440 -0.170 1.170 1.880 2.340 2.710 19.230 2.350 1.180 -0.550 -2.430 -3.870 -4.550 -4.500 -4.030 -3.420 -2.750 -1.920 -0.720 0.920 2.660 3.950 5.820 3.390 1.470 -0.980 -3.340 -5.220 -6.480 -7.090 -7.050 -6.130 -4.080 -0.930 2.900 6.560 9.240 10.430 8.790 9.340 8.320 7.530 6.780 5.590 3.560 0.860 -1.890 -3.770 -4.140 -3.020 -1.010 1.230 3.220 4.920 52.890 8.420 10.360 11.940 12.570 11.740 9.170 5.000 -0.240 -5.620 -10.150 -12.860 -13.180 -11.000 -6.620 -0.560 68.450 14.080 20.900 25.870 27.580 25.110 18.290 8.000 -4.170 -16.560 -27.830 -37.250 -44.630 -49.830 -52.710 -53.020 -128.460 -46.310 -40.680 -35.060 -30.380 -26.990 -24.650 -22.860 -21.370 -20.170 -19.370 -18.610 -17.010 -13.210 -6.260 3.780 -451.900 27.490 37.190 43.770 47.290 48.720 49.270 49.860 51.040 52.730 54.250 54.570 52.290 46.500 37.100 25.160 237.950 1.550 -6.650 -11.560 -13.750 -14.120 -13.370 -11.920 -9.950 -7.790 -6.020 -5.270 -5.850 -7.440 -9.300 -10.610 95.060 -10.090 -8.910 -8.040 -7.990 -8.890 -10.310 -11.420 -11.270 -9.200 -5.120 0.370 6.140 10.960 13.820 14.380 62.340 9.860 6.150 2.330 -1.240 -4.370 -6.820 -8.500 -9.320 -9.260 -8.360 -6.810 -4.880 -2.860 -1.140 -0.030 17.460 0.170 -0.310 -0.720 -0.940 -1.100 -1.410 -2.200 -3.460 -5.010 -6.450 -7.490 -7.810 -7.230 -5.680 -3.050 -34.670 4.860 9.230 12.870 15.040 15.260 13.600 10.520 6.640 2.570 -1.210 -4.390 -6.750 -8.070 -8.200 -7.220 14.630 -3.400 -1.630 -0.510 -0.090 -0.150 -0.360 -0.490 -0.560 -0.650 -0.930 -1.510 -2.310 -3.300 -4.350 -5.410 -17.280 -6.620 -6.010 -4.110 -0.910 3.240 7.500 11.000 13.100 13.650 12.830 11.050 8.630 5.700 2.400 -1.040 48.900 -6.590 -7.780 -7.690 -6.490 -4.700 -2.870 -1.400 -0.530 -0.270 -0.430 -0.800 -1.190 -1.530 -1.770 -2.070 0.220 -3.390 -4.560 -5.870 -6.930 -7.200 -6.180 -3.700 0.020 4.370 8.520 11.730 13.540 13.770 12.550 10.130 43.910 3.220 -0.500 -3.790 -6.250 -7.610 -7.700 -6.640 -4.800 -2.680 -0.880 0.240 0.530 0.150 -0.520 -1.050 4.430 -0.940 -0.530 -0.360 -0.790 -1.970 -3.810 -5.890 -7.540 -8.140 -7.220 -4.710 -0.950 3.410 7.550 10.780 -3.990 13.150 12.320 10.490 7.990 5.070 1.940 -1.190 -3.990 -6.110 -7.270 -7.320 -6.400 -4.860 -3.060 -1.450 5.100 0.530 0.800 0.730 0.430 0.060 -0.370 -0.840 -1.500 -2.400 -3.540 -4.770 -5.810 -6.240 -5.710 -4.050 -28.870 2.260 6.020 9.280 11.430 12.040 11.050 8.800 5.800 2.540 -0.610 -3.470 -5.850 -7.530 -8.220 -7.770 0.710 -3.920 -1.550 0.370 1.480 1.810 1.580 1.080 0.550 -0.010 -0.670 -1.440 -2.380 -3.400 -4.430 -5.300 -21.360 -5.840 -4.990 -3.060 -0.110 3.570 7.300 10.390 12.210 12.540 11.460 9.220 6.210 2.780 -0.740 -3.930 29.280 -7.660 -7.600 -6.330 -4.280 -2.040 -0.130 1.090 1.610 1.530 1.100 0.520 -0.100 -0.800 -1.640 -2.670 -1.970 -5.040 -6.080 -6.740 -6.830 -6.090 -4.400 -1.690 1.790 5.500 8.740 10.810 11.370 10.440 8.480 5.980 27.630 0.820 -1.580 -3.680 -5.300 -6.100 -5.980 -4.970 -3.440 -1.800 -0.420 0.490 0.940 1.000 0.830 0.500 -0.950 -0.300 -0.790 -1.440 -2.340 -3.410 -4.400 -4.820 -4.270 -2.530 0.210 3.430 6.460 8.670 9.690 9.440 20.730 5.880 3.170 0.320 -2.310 -4.330 -5.530 -5.790 -5.320 -4.350 -3.170 -1.950 -0.850 0.050 0.650 0.880 -1.180 0.310 -0.230 -0.760 -1.200 -1.660 -2.330 -3.290 -4.450 -5.370 -5.470 -4.290 -1.740 1.830 5.610 8.700 -5.100 10.540 9.260 7.030 4.340 1.530 -1.200 -3.590 -5.400 -6.320 -6.270 -5.360 -3.850 -2.180 -0.630 0.650 -4.960 2.160 2.340 2.080 1.420 0.480 -0.560 -1.630 -2.710 -3.860 -4.900 -5.580 -5.450 -4.160 -1.680 1.610 -20.500 7.480 8.790 8.710 7.560 5.740 3.650 1.460 -0.720 -2.810 -4.590 -5.780 -6.140 -5.640 -4.450 -2.950 -11.690 -0.360 0.460 1.040 1.440 1.590 1.460 0.940 0.120 -0.940 -2.060 -3.100 -3.980 -4.480 -4.290 -3.100 -27.770 2.320 5.640 8.280 9.500 9.040 7.130 4.430 1.660 -0.690 -2.390 -3.460 -3.970 -3.930 -3.400 -2.480 -1.480 -0.410 0.230 0.400 0.230 -0.130 -0.560 -0.980 -1.420 -1.960 -2.670 -3.470 -4.250 -4.760 -4.610 -3.570 -30.880 1.510 4.810 7.770 9.730 10.300 9.540 7.730 5.270 2.570 -0.130 -2.560 -4.550 -5.770 -6.070 -5.380 0.000 -1.960 -0.120 1.200 1.800 1.650 1.040 0.280 -0.370 -0.860 -1.330 -2.030 -3.120 -4.520 -5.880 -6.670 -27.390 -5.130 -2.690 0.390 3.620 6.450 8.550 9.690 9.800 8.880 7.090 4.640 1.900 -0.720 -2.790 -3.960 14.260 -3.220 -1.720 -0.100 1.160 1.740 1.570 0.880 0.020 -0.700 -1.120 -1.310 -1.420 -1.660 -2.080 -2.700 0.170 -4.210 -4.870 -5.190 -4.830 -3.560 -1.350 1.560 4.550 6.950 8.250 8.300 7.280 5.600 3.600 1.560 23.440 -2.070 -3.360 -4.050 -4.010 -3.350 -2.210 -0.930 0.250 1.070 1.430 1.260 0.650 -0.240 -1.190 -1.970 2.270 -2.580 -2.470 -2.340 -2.340 -2.630 -3.160 -3.840 -4.290 -4.180 -3.140 -1.140 1.670 4.690 7.310 8.950 2.110 8.570 6.970 4.880 2.680 0.560 -1.390 -3.030 -4.180 -4.660 -4.350 -3.350 -1.940 -0.500 0.540 1.040 4.970 0.680 0.250 -0.120 -0.490 -0.900 -1.420 -1.960 -2.420 -2.720 -2.840 -2.980 -3.220 -3.580 -3.860 -3.650 -26.900 -0.710 1.960 4.870 7.390 9.010 9.480 8.800 7.200 4.990 2.440 -0.160 -2.540 -4.400 -5.560 -5.900 4.520 -4.390 -2.980 -1.460 -0.060 1.040 1.670 1.730 1.280 0.410 -0.560 -1.350 -1.730 -1.710 -1.480 -1.300 -7.770 -1.830 -2.520 -3.270 -3.830 -4.060 -3.790 -2.860 -1.260 0.980 3.540 6.010 7.820 8.640 8.330 7.100 16.480 3.180 1.120 -0.760 -2.380 -3.600 -4.270 -4.290 -3.690 -2.640 -1.420 -0.290 0.490 0.850 0.760 0.320 -0.400 -0.800 -1.100 -1.110 -1.020 -0.950 -1.110 -1.510 -2.100 -2.730 -3.260 -3.570 -3.460 -2.730 -1.220 1.050 -22.290 6.300 8.070 8.670 8.000 6.360 4.170 1.950 -0.040 -1.650 -2.860 -3.700 -4.110 -4.130 -3.710 -2.850 -3.470 -0.320 0.850 1.510 1.460 0.800 -0.180 -1.050 -1.540 -1.540 -1.310 -1.190 -1.350 -1.840 -2.460 -2.950 -17.850 -3.350 -3.240 -2.820 -1.900 -0.270 2.010 4.610 6.960 8.530 8.920 8.130 6.430 4.260 2.050 0.020 20.890 -2.810 -3.550 -3.810 -3.560 -2.840 -1.750 -0.490 0.580 1.220 1.290 0.810 0.000 -0.930 -1.770 -2.370 -1.790 -2.770 -2.630 -2.380 -2.200 -2.270 -2.600 -3.090 -3.450 -3.270 -2.250 -0.350 2.150 4.740 6.940 8.320 1.860 8.270 7.020 5.190 2.990 0.670 -1.570 -3.410 -4.610 -5.040 -4.730 -3.880 -2.700 -1.520 -0.500 0.250 -1.000 0.890 0.800 0.450 -0.070 -0.620 -1.070 -1.290 -1.320 -1.270 -1.370 -1.790 -2.540 -3.560 -4.430 -4.790 -27.270 -2.750 -0.360 2.460 5.160 7.170 8.180 8.090 7.080 5.420 3.470 1.460 -0.390 -1.860 -2.840 -3.270 6.580 -2.650 -1.850 -0.880 0.130 1.060 1.690 1.870 1.470 0.610 -0.460 -1.470 -2.110 -2.450 -2.590 -2.800 -7.040 -3.790 -4.490 -5.040 -5.210 -4.780 -3.590 -1.610 0.980 3.740 6.230 7.950 8.670 8.410 7.360 5.750 17.340 1.620 -0.580 -2.580 -4.030 -4.680 -4.420 -3.350 -1.880 -0.420 0.700 1.240 1.220 0.760 0.090 -0.630 -0.800 -1.540 -1.680 -1.770 -1.990 -2.520 -3.370 -4.310 -4.980 -4.970 -4.040 -2.180 0.340 3.060 5.550 7.470 -9.140 8.840 8.290 7.020 5.210 3.080 0.850 -1.170 -2.790 -3.860 -4.300 -4.110 -3.430 -2.390 -1.320 -0.390 0.520 0.210 -0.090 -0.590 -1.100 -1.470 -1.710 -1.860 -2.140 -2.600 -3.280 -4.050 -4.610 -4.640 -3.850 -2.090 -32.780 3.690 6.670 8.910 9.970 9.780 8.490 6.500 4.120 1.640 -0.720 -2.760 -4.270 -5.020 -4.950 -4.100 2.370 -1.400 -0.270 0.360 0.510 0.290 -0.080 -0.430 -0.700 -0.910 -1.130 -1.520 -2.070 -2.740 -3.430 -3.940 -19.160 -3.640 -2.510 -0.710 1.590 4.040 6.200 7.680 8.250 7.850 6.630 4.800 2.640 0.450 -1.600 -3.220 15.090 -4.380 -3.700 -2.350 -0.680 0.820 1.740 1.860 1.300 0.390 -0.390 -0.790 -0.820 -0.730 -0.930 -1.570 2.250 -3.800 -4.790 -5.320 -5.190 -4.290 -2.610 -0.210 2.600 5.310 7.330 8.230 7.920 6.660 4.900 3.050 23.330 -0.390 -1.950 -3.320 -4.210 -4.410 -3.840 -2.700 -1.360 -0.190 0.570 0.940 1.010 0.970 0.840 0.590 6.060 -0.480 -1.330 -2.320 -3.290 -4.140 -4.650 -4.610 -3.820 -2.150 0.240 2.950 5.400 7.060 7.540 6.910 14.840 3.630 1.740 -0.080 -1.740 -3.240 -4.350 -4.780 -4.330 -2.980 -1.030 0.940 2.410 3.050 2.930 2.320 10.920 0.940 0.350 -0.410 -1.450 -2.750 -4.030 -4.920 -5.120 -4.470 -3.070 -1.090 1.170 3.420 5.410 6.920 9.660 8.190 7.990 7.320 6.110 4.380 2.180 -0.350 -2.820 -4.870 -6.090 -6.240 -5.210 -3.240 -0.760 1.560 20.880 3.400 2.650 1.240 -0.090 -0.810 -0.710 -0.120 0.340 0.000 -1.610 -4.350 -7.600 -10.290 -11.360 -10.150 -25.300 -1.860 3.070 6.860 8.660 8.350 6.430 3.580 0.480 -2.590 -5.440 -7.940 -9.800 -10.670 -10.210 -8.340 -50.090 -1.910 1.310 3.590 4.610 4.350 3.240 1.690 0.160 -1.240 -2.400 -3.430 -4.310 -5.070 -5.750 -6.350 -68.430 -7.010 -6.560 -5.010 -2.100 1.980 6.530 10.470 12.830 13.080 11.450 8.610 5.480 2.720 0.640 -0.790 -17.740 -1.930 -1.520 -0.290 1.630 3.850 5.800 7.080 7.630 7.650 7.490 7.520 7.910 8.670 9.830 11.230 77.460 13.630 13.630 12.100 8.800 4.060 -1.310 -6.140 -9.340 -10.330 -9.220 -6.760 -3.980 -1.760 -0.540 -0.100 80.320 0.680 1.830 3.280 4.460 4.620 3.390 0.850 -2.360 -5.130 -6.300 -4.930 -0.680 5.850 13.220 19.520 141.230 21.030 14.280 3.100 -10.540 -24.130 -35.020 -41.530 -43.120 -40.640 -35.820 -30.500 -26.050 -22.940 -21.100 -20.060 -191.320 -19.250 -19.050 -18.360 -16.390 -12.420 -6.340 1.180 8.780 15.120 19.330 21.600 22.680 23.510 24.580 25.650 -94.660 25.100 22.630 19.030 15.160 11.860 9.670 8.710 8.830 9.830 11.450 13.380 15.130 16.030 15.320 12.580 127.960 2.090 -3.670 -8.110 -10.410 -10.520 -9.040 -6.920 -4.970 -3.500 -2.470 -1.450 -0.120 1.530 3.180 4.320 82.450 3.740 2.080 -0.090 -2.370 -4.440 -6.040 -6.860 -6.560 -4.980 -2.320 0.750 3.160 3.860 2.410 -0.730 59.690 -7.080 -7.860 -6.700 -4.320 -1.870 -0.290 0.090 -0.480 -1.300 -1.620 -0.850 1.070 3.710 6.090 7.190 51.820 3.470 -0.830 -5.770 -10.840 -16.070 -21.700 -27.660 -33.030 -36.300 -35.830 -31.010 -22.600 -12.470 -2.710 5.250 -185.380 14.380 15.810 14.930 11.500 5.840 -0.670 -5.890 -7.790 -5.600 -0.300 5.840 10.210 11.160 8.520 3.460 -106.310 -7.320 -10.720 -12.310 -12.120 -10.240 -6.660 -1.500 4.820 11.280 16.600 19.400 18.890 15.250 9.770 4.200 -66.710 -1.160 0.020 3.380 8.350 14.530 21.840 30.020 38.370 45.530 49.780 49.710 44.920 36.340 25.840 15.510 323.050 0.100 -4.900 -8.680 -11.270 -12.090 -10.470 -6.450 -1.400 2.310 2.400 -2.190 -10.680 -20.770 -29.840 -36.350 132.570 -42.630 -44.970 -47.580 -49.450 -48.870 -44.430 -36.160 -25.670 -15.470 -7.650 -3.160 -1.660 -2.110 -3.440 -4.980 -251.930 -6.870 -6.240 -4.120 -0.740 2.920 5.710 6.680 5.660 3.110 -0.160 -3.370 -5.840 -7.010 -6.200 -2.860 -268.020 11.810 21.970 32.460 41.990 49.540 54.560 56.950 56.720 54.110 49.440 43.240 36.330 29.530 23.390 17.840 324.010 5.420 -2.860 -12.110 -20.740 -26.650 -28.420 -26.160 -21.760 -17.900 -17.150 -20.750 -28.130 -37.110 -44.490 -47.040 -64.490 -31.350 -15.600 0.460 12.610 18.580 19.080 17.570 18.080 23.010 31.400 39.440 42.310 36.980 23.670 5.940 166.470 -23.610 -29.620 -30.410 -28.980 -28.210 -29.540 -32.380 -34.790 -34.620 -30.680 -23.180 -13.560 -3.740 4.760 11.170 -145.460 17.910 18.590 17.160 13.140 6.470 -2.130 -11.130 -18.800 -23.860 -25.950 -25.440 -22.880 -18.520 -12.210 -3.870 -231.110 15.530 23.320 28.090 30.090 30.900 32.530 36.250 41.880 47.620 51.240 50.910 46.040 37.440 26.750 15.660 288.580 -3.530 -11.260 -17.870 -23.120 -26.660 -28.140 -27.850 -26.850 -26.630 -28.640 -33.640 -41.140 -49.270 -55.080 -55.390 -214.470 -32.540 -11.180 12.280 33.640 49.940 60.260 65.530 67.080 65.340 59.340 47.740 30.230 8.950 -11.940 -27.880 166.260 -36.770 -33.030 -29.050 -27.960 -30.780 -36.050 -40.890 -42.480 -39.070 -30.600 -18.480 -5.020 7.460 17.420 24.350 -126.070 30.760 30.890 28.770 24.400 18.620 13.450 11.490 14.450 22.170 32.180 40.750 44.480 41.690 32.950 20.360 287.710 -7.110 -19.130 -29.100 -36.380 -40.070 -39.400 -34.160 -25.240 -14.370 -3.630 5.240 11.110 13.480 12.110 7.070 86.910 -11.610 -22.170 -30.500 -34.400 -32.480 -24.780 -12.850 0.670 12.660 20.490 22.740 19.650 13.030 5.510 -0.310 9.560 -2.390 0.330 3.420 5.510 5.980 4.930 2.860 0.020 -3.540 -7.910 -12.800 -17.380 -20.470 -21.210 -19.390 -88.300 -11.830 -8.740 -7.250 -7.210 -7.720 -7.570 -5.630 -1.350 4.860 11.710 17.250 19.810 18.820 15.440 12.240 -33.600 16.030 24.440 34.960 44.810 51.430 53.400 50.400 42.880 31.710 18.090 3.680 -9.450 -19.170 -24.070 -24.140 240.460 -17.030 -14.950 -16.310 -21.160 -28.200 -35.300 -40.380 -42.090 -40.230 -35.640 -29.890 -24.490 -20.710 -18.960 -19.060 -184.160 -21.390 -21.540 -19.960 -16.270 -10.610 -3.600 3.750 10.030 13.840 14.180 10.820 4.700 -2.090 -6.920 -7.480 -239.450 6.130 16.010 22.730 22.710 14.330 -1.360 -20.900 -39.580 -52.550 -56.360 -49.690 -33.760 -12.030 10.880 30.570 -338.160 50.930 51.900 49.060 44.320 39.200 34.860 32.440 32.620 34.990 37.440 36.780 30.020 16.450 -1.320 -18.210 104.610 -29.390 -20.380 -5.260 10.870 23.480 30.180 30.780 26.540 18.820 8.550 -3.610 -16.390 -27.260 -32.960 -30.800 67.210 -5.380 9.060 16.840 14.520 2.960 -12.770 -25.760 -30.460 -25.080 -12.320 2.280 12.970 16.140 11.640 2.330 36.450 -14.840 -17.150 -15.040 -10.410 -5.660 -2.310 -0.300 1.890 6.300 14.120 24.460 34.260 39.450 37.140 27.480 169.970 2.650 -2.190 1.120 10.120 19.910 25.550 24.400 16.820 5.200 -7.690 -20.050 -31.090 -40.180 -46.080 -46.830 40.800 -28.190 -11.420 5.430 18.460 25.620 27.530 26.810 26.100 26.320 26.280 23.190 14.860 0.980 -16.120 -32.640 129.190 -50.440 -49.210 -42.580 -32.910 -22.710 -14.290 -9.650 -10.080 -15.860 -25.520 -36.030 -43.720 -45.710 -41.300 -32.010 -363.460 -9.820 -1.010 5.580 10.300 13.300 14.240 12.880 9.750 6.480 5.010 6.420 10.430 15.460 19.760 22.620 -197.530 26.720 30.000 34.250 38.320 40.920 41.110 39.130 36.030 33.390 32.430 33.650 36.430 39.370 40.760 39.290 378.710 26.440 15.990 4.020 -8.470 -20.130 -29.410 -35.030 -36.800 -35.700 -33.410 -31.500 -30.430 -29.500 -27.550 -23.940 64.360 -13.590 -9.190 -6.650 -6.650 -9.480 -15.030 -22.190 -28.650 -31.350 -28.010 -18.370 -4.580 9.810 21.550 29.190 -35.710 34.310 33.030 28.620 20.440 9.370 -1.640 -8.430 -7.890 0.120 12.140 22.560 26.110 20.380 6.670 -10.920 121.690 -39.310 -45.100 -45.380 -41.590 -34.950 -26.090 -15.520 -4.180 6.200 13.640 16.640 15.050 10.190 4.200 -1.000 -70.040 -6.750 -8.680 -11.240 -14.520 -17.720 -19.680 -19.680 -17.790 -14.970 -12.380 -11.010 -11.110 -12.280 -13.400 -13.050 -284.120 -2.740 7.990 20.890 33.090 41.200 42.680 37.150 26.860 15.970 8.680 7.380 11.490 18.090 23.570 25.690 58.330 21.760 20.020 20.430 22.450 24.080 23.300 19.290 12.790 5.540 -0.830 -5.710 -9.540 -12.930 -15.990 -18.020 146.980 -15.200 -10.240 -4.670 -0.510 0.620 -1.860 -7.290 -14.400 -21.740 -28.270 -33.410 -37.070 -39.700 -41.830 -43.750 -197.270 -43.850 -38.480 -27.230 -10.350 9.650 28.430 41.540 46.170 42.480 33.310 22.720 14.070 8.630 5.850 4.280 -57.130 1.900 2.130 4.280 8.030 12.110 14.930 15.530 14.210 12.230 10.950 11.000 12.010 12.820 12.310 9.840 102.860 0.840 -3.800 -7.520 -10.000 -11.290 -11.380 -10.200 -7.670 -3.880 0.700 5.350 9.370 12.140 13.370 13.080 103.310 8.470 4.760 0.700 -3.210 -6.480 -8.660 -9.610 -9.470 -8.390 -6.740 -4.800 -2.850 -1.230 -0.160 0.180 55.650 -1.020 -2.040 -3.060 -3.990 -4.910 -6.040 -7.360 -8.760 -9.940 -10.650 -10.600 -9.620 -7.520 -4.290 -0.020 -29.420 9.240 12.450 13.700 12.830 10.380 7.350 4.650 2.790 1.670 0.810 -0.220 -1.550 -2.910 -3.940 -4.380 29.010 -4.500 -4.980 -5.910 -7.030 -7.910 -8.150 -7.820 -7.170 -6.510 -5.990 -5.450 -4.580 -3.110 -1.100 1.120 -47.030 4.290 4.770 4.910 5.380 6.930 9.960 14.390 19.480 23.980 26.420 25.590 20.870 12.470 1.550 -9.950 104.130 -26.360 -28.490 -26.470 -21.560 -15.420 -9.630 -5.140 -2.270 -0.960 -0.870 -1.710 -3.100 -4.510 -5.380 -5.120 -56.480 -1.170 1.580 3.880 5.220 5.440 4.670 3.220 1.500 -0.060 -0.910 -0.590 1.130 4.080 7.630 10.950 3.290 13.950 13.250 11.460 9.060 6.360 3.550 0.640 -2.160 -4.580 -6.200 -6.850 -6.540 -5.650 -4.630 -3.860 17.650 -3.250 -3.020 -2.600 -1.950 -1.230 -0.670 -0.410 -0.460 -0.800 -1.420 -2.360 -3.720 -5.360 -6.880 -7.580 -30.870 -4.250 -0.160 4.580 8.810 11.500 12.160 11.030 8.790 6.300 4.150 2.600 1.540 0.690 -0.090 -0.730 35.020 -0.640 0.700 2.790 5.200 7.090 7.750 6.780 4.460 1.420 -1.480 -3.630 -4.770 -4.980 -4.530 -3.750 44.350 -3.120 -4.550 -7.840 -12.870 -18.850 -24.430 -28.260 -29.540 -28.370 -25.460 -21.790 -17.860 -13.710 -8.920 -3.170 -200.940 10.220 16.090 19.980 21.410 20.550 18.220 15.540 13.370 12.160 11.760 11.680 11.400 10.610 9.250 7.480 14.350 3.670 1.820 0.010 -1.800 -3.560 -5.170 -6.510 -7.360 -7.540 -6.820 -5.120 -2.490 0.750 4.190 7.390 -4.180 11.970 13.310 14.010 13.930 12.770 10.220 6.350 1.570 -3.290 -7.390 -10.120 -11.350 -11.390 -10.770 -9.950 6.470 -8.510 -7.680 -6.480 -4.910 -3.090 -1.340 0.050 0.890 1.170 1.010 0.560 -0.120 -0.960 -1.810 -2.380 -29.370 -1.010 1.330 4.340 7.270 9.350 10.050 9.380 7.740 5.610 3.440 1.370 -0.560 -2.330 -3.850 -4.900 12.410 -5.390 -4.900 -4.100 -3.140 -2.180 -1.360 -0.700 -0.290 -0.080 0.010 0.000 -0.130 -0.450 -1.080 -2.040 -16.680 -4.560 -5.680 -6.320 -6.210 -5.120 -3.070 -0.340 2.620 5.060 6.330 5.930 3.800 0.320 -3.690 -7.100 -43.680 -8.520 -5.530 -0.450 5.720 11.640 15.900 17.460 16.000 12.020 6.800 2.010 -0.760 -0.700 2.020 6.230 46.370 12.410 12.020 9.200 4.900 0.450 -3.140 -5.300 -5.970 -5.430 -4.030 -1.980 0.410 2.700 4.380 4.860 75.760 1.740 -1.000 -3.470 -4.930 -5.070 -4.000 -2.200 -0.220 1.370 2.310 2.490 2.080 1.330 0.430 -0.610 64.140 -3.470 -5.410 -7.430 -9.220 -10.400 -10.820 -10.450 -9.490 -8.100 -6.360 -4.400 -2.320 -0.290 1.570 3.290 -14.210 6.820 8.950 11.120 12.850 13.330 11.820 7.860 1.500 -6.460 -14.770 -21.700 -25.730 -26.010 -22.650 -16.940 -85.080 -6.320 -4.490 -5.240 -7.450 -9.470 -10.090 -8.890 -6.380 -3.470 -0.940 1.020 2.660 4.490 6.810 9.680 -110.180 16.540 20.320 24.150 27.670 30.280 31.190 29.840 25.870 19.480 11.300 2.420 -5.970 -12.650 -16.740 -17.860 59.330 -13.030 -9.080 -5.560 -3.110 -1.880 -1.600 -1.840 -2.140 -2.290 -2.300 -2.300 -2.580 -3.230 -4.220 -5.280 -7.240 -6.520 -6.390 -5.780 -4.780 -3.460 -1.780 0.350 2.860 5.480 7.800 9.340 9.760 8.920 7.070 4.590 22.270 -0.170 -1.800 -2.770 -3.130 -3.010 -2.540 -1.860 -1.110 -0.510 -0.170 -0.130 -0.310 -0.530 -0.670 -0.700 2.200 -0.740 -0.990 -1.490 -2.160 -2.890 -3.590 -4.130 -4.350 -4.040 -2.990 -1.090 1.460 4.200 6.560 7.920 1.950 7.030 5.210 3.070 1.000 -0.840 -2.440 -3.770 -4.770 -5.310 -5.240 -4.610 -3.560 -2.370 -1.250 -0.350 -15.920 0.810 1.060 1.000 0.530 -0.340 -1.420 -2.360 -2.830 -2.660 -2.000 -1.130 -0.380 0.170 0.720 1.530 -20.340 4.540 6.120 6.970 6.670 5.210 3.030 0.710 -1.210 -2.530 -3.260 -3.590 -3.630 -3.470 -3.160 -2.750 -13.060 -2.150 -2.130 -2.220 -2.210 -1.950 -1.410 -0.660 0.060 0.540 0.630 0.350 -0.250 -1.010 -1.880 -2.730 -33.440 -3.580 -3.050 -1.600 0.760 3.700 6.700 9.150 10.650 10.970 10.170 8.530 6.420 4.210 2.250 0.760 32.480 -0.430 -0.300 0.090 0.530 0.880 1.070 1.070 0.890 0.590 0.130 -0.400 -0.950 -1.450 -1.900 -2.270 27.430 -2.880 -3.090 -3.240 -3.160 -2.780 -2.020 -0.840 0.570 1.960 3.000 3.420 3.200 2.500 1.620 0.760 26.510 -0.520 -1.100 -1.770 -2.470 -3.020 -3.330 -3.240 -2.810 -2.110 -1.390 -0.840 -0.610 -0.770 -1.250 -1.860 -3.050 -2.940 -3.230 -3.390 -3.490 -3.540 -3.620 -3.700 -3.850 -4.020 -4.250 -4.390 -4.290 -3.650 -2.200 0.190 -50.110 6.690 9.590 11.320 11.500 10.270 8.080 5.540 3.160 1.120 -0.640 -2.220 -3.650 -4.740 -5.230 -4.930 -8.230 -2.620 -1.320 -0.400 -0.020 -0.090 -0.500 -1.050 -1.680 -2.370 -3.060 -3.690 -4.230 -4.620 -4.880 -5.070 -49.010 -4.920 -4.040 -2.290 0.410 3.810 7.360 10.410 12.400 13.090 12.490 10.940 8.830 6.440 3.960 1.520 30.620 -2.700 -3.890 -4.160 -3.450 -2.020 -0.390 0.930 1.610 1.620 1.140 0.450 -0.230 -0.840 -1.370 -1.880 13.020 -3.010 -3.660 -4.410 -5.190 -5.830 -6.090 -5.590 -4.120 -1.670 1.450 4.680 7.390 9.080 9.540 8.900 21.900 5.430 3.210 0.920 -1.310 -3.280 -4.680 -5.260 -4.880 -3.650 -2.000 -0.350 0.800 1.300 1.140 0.610 9.920 -0.360 -0.460 -0.430 -0.480 -0.830 -1.600 -2.720 -3.970 -5.100 -5.840 -5.930 -5.170 -3.520 -1.040 1.930 -20.660 7.490 9.090 9.590 8.980 7.520 5.520 3.270 0.990 -1.130 -2.960 -4.350 -5.180 -5.300 -4.650 -3.330 3.250 -0.010 1.140 1.570 1.270 0.560 -0.120 -0.470 -0.450 -0.350 -0.530 -1.260 -2.540 -4.100 -5.560 -6.550 -20.900 -6.030 -4.390 -1.860 1.310 4.650 7.680 9.830 10.740 10.290 8.700 6.320 3.570 0.880 -1.480 -3.290 21.630 -4.760 -4.430 -3.450 -2.100 -0.650 0.510 1.020 0.820 0.040 -0.900 -1.560 -1.750 -1.460 -1.080 -1.000 -0.550 -2.350 -3.540 -4.640 -5.370 -5.530 -5.080 -3.920 -2.100 0.300 3.010 5.690 7.850 9.150 9.360 8.480 17.450 4.280 1.560 -1.080 -3.190 -4.530 -4.850 -4.280 -3.160 -1.910 -0.960 -0.550 -0.640 -1.030 -1.360 -1.470 -7.040 -1.120 -1.130 -1.590 -2.480 -3.520 -4.250 -4.300 -3.520 -2.100 -0.480 0.940 2.020 2.840 3.610 4.430 -12.360 6.400 7.930 10.340 13.810 17.740 20.820 21.280 17.960 10.930 1.690 -7.320 -13.980 -17.250 -17.510 -16.040 30.200 -12.900 -12.040 -11.230 -10.200 -9.010 -8.090 -7.900 -8.530 -9.570 -10.280 -10.090 -8.860 -7.070 -5.420 -4.230 -108.320 -0.990 3.240 10.010 18.700 27.820 35.750 41.360 44.300 44.760 42.930 38.750 31.980 22.700 11.740 0.630 256.480 -15.380 -18.550 -18.830 -17.410 -15.390 -13.590 -12.350 -11.610 -11.190 -10.860 -10.530 -10.170 -9.830 -9.670 -9.900 50.390 -12.790 -15.760 -19.390 -22.910 -25.350 -25.810 -23.970 -19.990 -14.590 -8.500 -2.360 3.380 8.390 12.290 14.670 -87.030 14.400 12.720 11.200 10.660 11.220 12.560 14.000 15.070 15.620 15.800 15.630 14.800 12.630 8.370 1.730 92.630 -15.810 -23.820 -29.480 -32.370 -32.940 -32.140 -30.860 -29.370 -27.340 -24.210 -19.610 -13.800 -7.480 -1.410 4.060 -214.890 13.970 18.930 23.420 26.490 27.220 25.200 20.910 15.520 10.420 6.630 4.530 3.780 3.790 3.930 3.830 -2.880 2.920 2.390 2.040 1.840 1.730 1.590 1.320 0.910 0.430 -0.030 -0.470 -0.940 -1.490 -2.230 -3.030 0.320 -4.210 -4.230 -3.700 -2.740 -1.380 0.180 1.750 3.120 4.080 4.510 4.440 3.970 3.290 2.430 1.460 13.660 -0.760 -1.760 -2.460 -2.790 -2.760 -2.530 -2.170 -1.730 -1.200 -0.610 -0.020 0.410 0.530 0.380 0.080 -3.950 -0.400 -0.480 -0.510 -0.630 -0.780 -0.900 -0.970 -0.930 -0.730 -0.330 0.340 1.250 2.270 3.120 3.580 3.510 3.150 2.660 2.210 1.860 1.430 0.690 -0.340 -1.460 -2.320 -2.630 -2.310 -1.540 -0.640 0.100 0.580 5.740 0.780 0.610 0.300 -0.170 -0.730 -1.250 -1.610 -1.730 -1.690 -1.610 -1.630 -1.830 -2.160 -2.410 -2.400 -13.830 -1.260 -0.130 1.190 2.560 3.820 4.800 5.380 5.440 5.020 4.220 3.210 2.230 1.390 0.770 0.350 25.240 -0.050 -0.100 -0.080 -0.100 -0.270 -0.640 -1.210 -1.890 -2.470 -2.800 -2.730 -2.330 -1.870 -1.650 -1.900 2.530 -3.510 -4.170 -4.240 -3.590 -2.380 -0.940 0.460 1.660 2.660 3.540 4.270 4.770 4.870 4.460 3.550 16.230 0.890 -0.430 -1.480 -2.110 -2.230 -1.870 -1.120 -0.220 0.580 0.980 0.860 0.270 -0.630 -1.470 -2.030 4.060 -1.910 -1.400 -0.850 -0.440 -0.340 -0.660 -1.340 -2.190 -2.840 -2.740 -1.580 0.740 3.740 6.720 8.780 17.120 8.350 6.210 3.640 1.520 0.260 -0.120 -0.090 -0.310 -1.230 -2.910 -4.860 -6.370 -6.890 -6.270 -4.860 -0.080 -2.260 -2.350 -3.820 -6.650 -10.530 -14.650 -17.710 -18.340 -15.680 -10.110 -3.230 2.440 4.990 3.840 0.170 -97.710 -5.820 -4.920 -1.250 4.190 9.940 14.590 16.770 15.480 10.390 2.350 -6.410 -13.080 -15.350 -12.530 -5.940 -87.210 9.190 14.260 17.110 18.040 16.900 13.060 6.220 -2.550 -10.320 -13.330 -8.890 2.650 17.450 29.540 33.720 83.650 13.520 -4.880 -22.680 -36.500 -44.620 -46.320 -41.160 -28.990 -11.080 9.220 26.740 36.210 34.430 21.820 2.190 -27.390 -36.360 -46.630 -48.810 -44.200 -35.580 -26.260 -18.950 -14.840 -13.250 -12.180 -9.680 -4.860 1.530 7.700 12.000 -303.800 14.520 15.150 17.000 20.140 23.590 26.130 26.980 26.220 24.620 23.170 22.580 22.990 24.020 24.990 25.310 58.230 23.080 21.180 19.620 19.040 19.770 21.800 24.830 28.420 32.030 34.960 36.250 34.870 30.090 21.800 10.770 435.330 -12.940 -22.250 -28.500 -31.690 -32.400 -31.570 -29.960 -27.790 -24.800 -20.280 -13.720 -5.380 3.440 10.700 14.550 197.010 10.840 6.240 2.390 0.050 -1.610 -4.380 -9.860 -18.280 -28.220 -37.050 -42.240 -42.340 -37.730 -30.190 -22.320 -73.910 -12.870 -11.850 -11.800 -11.300 -9.570 -6.880 -4.110 -2.180 -1.500 -1.740 -2.350 -2.770 -2.870 -2.720 -2.360 -162.390 -0.030 2.750 6.840 11.960 17.460 22.620 26.840 29.680 30.890 30.310 27.930 24.010 19.010 13.670 8.670 114.700 1.310 -1.010 -2.630 -3.700 -4.200 -4.100 -3.470 -2.590 -1.860 -1.650 -2.090 -2.990 -4.000 -4.820 -5.300 66.100 -5.610 -5.870 -6.480 -7.500 -8.840 -10.170 -10.940 -10.580 -8.660 -5.250 -0.920 3.440 6.900 8.900 9.320 22.300 6.750 4.520 2.020 -0.610 -3.070 -5.030 -6.010 -5.850 -4.550 -2.590 -0.570 0.930 1.650 1.660 1.270 13.670 0.620 0.530 0.390 0.010 -0.720 -1.760 -3.010 -4.300 -5.410 -6.080 -6.010 -4.950 -2.820 0.130 3.400 -9.970 8.400 9.320 9.110 8.070 6.560 4.860 3.090 1.340 -0.350 -1.830 -2.900 -3.370 -3.160 -2.420 -1.390 24.890 0.090 0.210 -0.040 -0.410 -0.740 -0.960 -1.160 -1.450 -1.950 -2.660 -3.470 -4.270 -4.880 -5.180 -4.970 -11.050 -2.430 -0.010 2.910 5.860 8.270 9.690 9.900 8.940 7.150 4.930 2.610 0.460 -1.400 -2.800 -3.610 35.730 -3.120 -2.170 -1.370 -1.190 -1.940 -3.470 -5.300 -6.810 -7.510 -7.350 -6.600 -5.700 -5.030 -4.710 -4.610 -35.700 -4.440 -4.280 -4.110 -3.890 -3.350 -2.180 -0.140 2.730 6.010 9.090 11.260 12.120 11.590 9.980 7.770 17.880 3.280 1.490 0.050 -1.050 -1.820 -2.200 -2.180 -1.750 -1.040 -0.200 0.580 1.100 1.270 1.070 0.560 16.900 -0.840 -1.470 -1.940 -2.280 -2.520 -2.730 -2.940 -3.180 -3.520 -3.990 -4.560 -5.020 -5.030 -4.210 -2.380 -29.320 3.580 6.530 8.550 9.290 8.710 7.180 5.170 3.150 1.360 -0.040 -1.070 -1.830 -2.310 -2.550 -2.520 11.680 -1.640 -0.890 -0.140 0.440 0.670 0.500 -0.030 -0.700 -1.360 -1.840 -2.120 -2.260 -2.340 -2.440 -2.560 -7.750 -2.930 -3.240 -3.610 -3.930 -3.920 -3.270 -1.790 0.420 3.050 5.520 7.330 8.130 7.900 6.870 5.360 17.880 2.210 0.860 -0.320 -1.300 -2.060 -2.480 -2.490 -2.110 -1.460 -0.730 -0.140 0.270 0.500 0.720 1.000 11.590 1.320 1.060 0.410 -0.480 -1.320 -1.880 -2.010 -1.790 -1.400 -1.110 -1.080 -1.360 -1.820 -2.190 -2.180 -5.740 0.010 2.320 5.060 7.770 9.830 10.650 9.960 7.790 4.600 1.040 -2.080 -4.130 -4.740 -3.890 -1.910 37.160 3.150 5.120 6.260 6.570 6.210 5.560 4.980 4.860 5.460 6.780 8.410 9.320 8.190 3.790 -4.130 103.180 -24.900 -32.380 -34.820 -31.860 -25.160 -17.540 -11.630 -8.710 -8.500 -10.020 -12.380 -15.660 -20.370 -26.860 -34.320 -252.910 -44.700 -44.080 -39.070 -30.720 -20.390 -8.940 3.530 17.230 31.910 46.510 59.180 68.010 71.790 70.490 65.100 50.180 48.390 39.510 31.020 23.010 15.580 8.930 3.350 -0.980 -4.210 -6.780 -9.230 -11.910 -14.840 -17.680 -20.100 112.420 -22.790 -23.210 -23.150 -22.700 -21.740 -20.180 -17.890 -14.990 -11.860 -9.130 -7.520 -7.550 -9.170 -11.550 -13.460 -138.070 -11.290 -6.810 -1.290 3.790 7.320 9.030 9.450 9.440 9.720 10.600 12.180 14.550 17.890 22.260 27.210 27.610 34.150 33.600 29.720 23.300 15.700 8.270 1.770 -3.640 -8.130 -11.860 -14.750 -16.750 -17.990 -18.720 -19.070 44.430 -17.320 -14.100 -9.070 -2.900 3.200 7.910 10.430 10.680 9.180 6.680 3.900 1.140 -1.450 -3.870 -6.020 35.130 -8.590 -8.530 -7.540 -5.930 -4.210 -2.980 -2.620 -3.260 -4.650 -6.280 -7.490 -7.800 -6.900 -4.820 -1.860 -46.850 4.620 7.080 8.580 9.060 8.650 7.620 6.190 4.550 2.780 0.970 -0.710 -1.980 -2.530 -2.130 -0.800 6.210 3.080 4.490 4.910 4.360 3.150 1.900 1.120 1.130 1.820 2.760 3.420 3.420 2.600 1.170 -0.470 43.350 -2.010 -0.780 2.180 6.620 11.690 16.000 18.020 16.570 11.300 2.910 -7.050 -16.710 -24.570 -29.890 -32.770 -19.080 -34.240 -34.330 -34.430 -34.460 -34.120 -33.040 -31.000 -27.860 -23.530 -17.840 -10.410 -0.900 10.940 24.730 39.340 -207.240 63.580 69.430 69.840 65.310 57.120 46.980 36.310 26.150 17.150 9.650 3.680 -1.090 -5.330 -9.680 -14.300 208.880 -21.890 -23.160 -22.370 -20.310 -18.020 -16.220 -14.700 -12.560 -9.070 -4.190 1.170 5.690 8.510 9.860 10.670 93.950 12.560 12.020 8.520 1.570 -7.540 -16.070 -21.220 -21.540 -17.730 -12.110 -7.370 -5.180 -5.630 -7.610 -9.620 -13.790 -11.140 -11.240 -11.910 -13.630 -16.660 -20.880 -26.000 -31.420 -36.350 -39.930 -41.210 -39.570 -34.800 -27.100 -17.060 -398.240 6.350 17.580 27.140 34.410 38.970 40.850 40.300 37.790 33.930 29.390 24.820 20.770 17.490 14.990 12.990 10.740 9.380 7.460 5.510 3.640 1.850 0.190 -1.300 -2.320 -2.580 -1.740 0.170 2.780 5.380 7.210 7.770 61.130 5.230 3.100 1.160 -0.250 -1.140 -1.710 -2.160 -2.620 -2.980 -3.100 -2.840 -2.280 -1.630 -1.130 -1.000 46.570 -1.660 -2.100 -2.430 -2.600 -2.670 -2.780 -2.950 -3.210 -3.510 -3.820 -4.170 -4.520 -4.840 -4.860 -4.290 -6.690 -0.460 2.620 5.840 8.560 10.250 10.690 10.020 8.600 6.750 4.650 2.240 -0.600 -3.790 -7.040 -9.810 30.250 -12.080 -11.320 -9.700 -7.650 -5.590 -3.790 -2.340 -1.210 -0.400 0.140 0.470 0.670 0.790 0.900 0.940 -19.040 0.570 0.000 -0.760 -1.390 -1.540 -0.830 0.860 3.270 5.790 7.700 8.500 8.020 6.580 4.720 2.850 26.540 -0.160 -1.410 -2.540 -3.430 -3.790 -3.500 -2.590 -1.280 0.030 1.010 1.480 1.400 0.950 0.390 -0.130 12.510 -0.670 -0.850 -1.140 -1.590 -2.170 -2.810 -3.410 -3.850 -4.080 -3.990 -3.460 -2.410 -0.810 1.210 3.420 -8.670 6.870 7.490 7.210 6.130 4.500 2.660 0.860 -0.690 -1.930 -2.790 -3.270 -3.340 -2.980 -2.240 -1.270 8.200 0.310 0.490 0.160 -0.520 -1.290 -1.910 -2.190 -2.090 -1.730 -1.290 -1.010 -1.030 -1.450 -2.220 -3.160 -14.750 -4.470 -4.200 -3.050 -1.060 1.510 4.190 6.510 8.100 8.720 8.380 7.260 5.550 3.520 1.450 -0.450 25.260 -2.870 -3.210 -3.010 -2.460 -1.770 -1.070 -0.510 -0.090 0.170 0.230 0.140 -0.130 -0.500 -0.940 -1.360 6.200 -1.890 -1.970 -2.020 -2.080 -2.270 -2.630 -3.110 -3.550 -3.620 -3.060 -1.690 0.390 2.790 5.020 6.600 0.360 6.920 5.810 4.220 2.420 0.680 -0.880 -2.140 -3.060 -3.560 -3.590 -3.180 -2.360 -1.320 -0.260 0.590 1.660 0.990 0.560 -0.040 -0.590 -0.940 -1.080 -1.070 -1.110 -1.260 -1.610 -2.110 -2.680 -3.170 -3.490 -3.460 -22.330 -1.820 -0.120 1.960 4.090 5.890 6.930 7.080 6.380 5.060 3.430 1.750 0.120 -1.390 -2.670 -3.620 6.710 -3.800 -3.000 -1.840 -0.620 0.380 1.010 1.270 1.190 0.890 0.390 -0.220 -0.890 -1.430 -1.830 -2.010 -5.910 -2.220 -2.450 -2.810 -3.120 -3.170 -2.710 -1.610 0.120 2.220 4.320 6.000 6.920 6.950 6.170 4.860 16.840 1.630 0.030 -1.470 -2.750 -3.690 -4.060 -3.790 -2.940 -1.770 -0.640 0.120 0.390 0.240 -0.120 -0.470 -3.130 -0.740 -0.760 -0.850 -1.040 -1.350 -1.750 -2.230 -2.770 -3.270 -3.540 -3.360 -2.490 -0.930 1.180 3.450 -18.120 6.820 7.390 7.140 6.240 4.890 3.280 1.640 0.070 -1.300 -2.360 -3.030 -3.240 -2.930 -2.190 -1.180 2.920 0.500 0.730 0.560 0.150 -0.260 -0.530 -0.660 -0.790 -1.090 -1.560 -2.140 -2.690 -3.130 -3.470 -3.720 -18.970 -3.500 -2.580 -0.900 1.370 3.780 5.790 7.010 7.230 6.620 5.500 4.130 2.720 1.250 -0.240 -1.680 14.680 -3.550 -3.600 -3.030 -2.010 -0.880 0.080 0.660 0.800 0.620 0.270 -0.100 -0.450 -0.760 -1.060 -1.330 -1.240 -1.800 -2.060 -2.440 -2.930 -3.450 -3.740 -3.450 -2.370 -0.540 1.770 4.060 5.800 6.700 6.710 6.000 11.860 3.490 2.100 0.740 -0.530 -1.650 -2.520 -3.030 -3.110 -2.780 -2.100 -1.180 -0.250 0.510 0.920 0.900 3.890 -0.030 -0.530 -0.850 -0.990 -1.080 -1.270 -1.630 -2.130 -2.700 -3.190 -3.500 -3.500 -3.030 -1.960 -0.280 -20.910 4.150 6.060 7.200 7.340 6.560 5.100 3.360 1.580 -0.010 -1.370 -2.460 -3.160 -3.430 -3.160 -2.430 3.030 -0.340 0.480 0.880 0.840 0.470 -0.050 -0.540 -0.940 -1.190 -1.310 -1.410 -1.500 -1.690 -2.000 -2.420 -10.570 -3.220 -3.210 -2.630 -1.410 0.420 2.540 4.570 6.120 6.920 6.890 6.100 4.750 2.990 1.080 -0.790 18.210 -3.350 -3.670 -3.340 -2.510 -1.430 -0.330 0.590 1.190 1.380 1.200 0.730 0.150 -0.380 -0.730 -0.880 5.880 -1.090 -1.380 -1.830 -2.360 -2.810 -3.060 -2.990 -2.580 -1.780 -0.660 0.690 2.100 3.420 4.440 5.020 6.070 4.460 3.310 1.680 -0.150 -1.900 -3.300 -4.160 -4.430 -4.150 -3.460 -2.540 -1.540 -0.630 0.060 0.420 -9.800 0.270 0.020 -0.180 -0.240 -0.230 -0.270 -0.470 -0.890 -1.480 -2.140 -2.680 -2.860 -2.530 -1.540 0.060 -22.890 4.150 5.910 7.000 7.240 6.650 5.470 3.940 2.270 0.630 -0.890 -2.170 -3.060 -3.410 -3.180 -2.440 3.830 -0.340 0.450 0.840 0.790 0.450 -0.040 -0.550 -0.950 -1.220 -1.360 -1.470 -1.620 -1.900 -2.350 -2.870 -11.680 -3.590 -3.350 -2.480 -0.890 1.230 3.550 5.590 6.920 7.290 6.720 5.490 3.920 2.290 0.730 -0.680 19.120 -2.920 -3.440 -3.420 -2.840 -1.870 -0.780 0.110 0.660 0.750 0.500 0.040 -0.430 -0.820 -1.070 -1.210 1.080 -1.430 -1.610 -1.870 -2.200 -2.600 -3.040 -3.370 -3.310 -2.630 -1.140 1.020 3.470 5.660 7.060 7.390 9.220 5.370 3.670 1.940 0.360 -1.050 -2.220 -3.070 -3.470 -3.360 -2.750 -1.780 -0.710 0.260 0.910 1.180 5.560 0.650 0.090 -0.510 -1.020 -1.380 -1.650 -1.840 -1.980 -2.150 -2.370 -2.640 -2.920 -3.110 -3.060 -2.580 -22.400 0.190 2.270 4.360 6.010 6.850 6.720 5.780 4.380 2.870 1.540 0.440 -0.540 -1.480 -2.420 -3.160 7.950 -3.160 -2.250 -0.990 0.240 1.110 1.430 1.240 0.710 0.080 -0.520 -1.050 -1.480 -1.860 -2.160 -2.300 -5.310 -2.260 -2.320 -2.590 -2.970 -3.220 -2.970 -1.950 -0.160 2.080 4.230 5.830 6.560 6.460 5.780 4.740 15.480 2.220 0.790 -0.660 -1.970 -2.910 -3.350 -3.280 -2.750 -1.930 -0.940 0.010 0.800 1.230 1.260 0.880 5.080 -0.540 -1.150 -1.520 -1.670 -1.640 -1.620 -1.620 -1.750 -2.040 -2.520 -3.080 -3.470 -3.360 -2.450 -0.670 -22.310 4.200 6.190 7.230 7.220 6.320 4.860 3.190 1.500 -0.030 -1.370 -2.410 -3.090 -3.340 -3.130 -2.520 0.930 -0.520 0.500 1.220 1.490 1.320 0.770 0.100 -0.540 -1.000 -1.290 -1.510 -1.720 -1.960 -2.230 -2.470 -9.600 -2.870 -2.940 -2.820 -2.310 -1.280 0.260 2.160 4.080 5.650 6.510 6.540 5.730 4.320 2.640 0.940 16.470 -1.740 -2.590 -3.110 -3.210 -2.880 -2.100 -1.020 0.120 0.980 1.350 1.200 0.670 0.040 -0.450 -0.680 2.330 -0.760 -0.950 -1.330 -1.870 -2.460 -2.990 -3.370 -3.560 -3.410 -2.780 -1.600 0.120 2.140 4.120 5.680 -4.150 6.540 5.800 4.490 2.870 1.200 -0.300 -1.530 -2.380 -2.870 -2.970 -2.700 -2.110 -1.300 -0.380 0.450 1.670 1.180 1.000 0.560 0.060 -0.400 -0.730 -0.950 -1.140 -1.400 -1.750 -2.200 -2.720 -3.140 -3.330 -3.090 -18.680 -0.930 0.880 2.860 4.640 5.870 6.370 6.110 5.240 3.970 2.520 1.040 -0.370 -1.580 -2.460 -2.860 9.880 -2.120 -1.150 -0.090 0.840 1.450 1.640 1.490 1.130 0.750 0.460 0.290 0.150 -0.130 -0.600 -1.180 11.050 -2.120 -2.220 -2.100 -1.880 -1.640 -1.380 -1.060 -0.640 -0.080 0.550 1.180 1.700 2.020 2.040 1.640 7.810 -0.580 -2.160 -3.660 -4.740 -5.150 -4.840 -3.950 -2.730 -1.460 -0.390 0.340 0.690 0.680 0.450 0.140 -19.630 -0.110 0.090 0.440 0.790 0.970 0.890 0.510 -0.080 -0.720 -1.220 -1.330 -0.900 0.180 1.810 3.660 -9.330 6.410 6.650 6.090 4.930 3.490 2.020 0.660 -0.540 -1.560 -2.330 -2.730 -2.680 -2.180 -1.400 -0.580 7.000 0.420 0.470 0.270 -0.010 -0.340 -0.660 -0.960 -1.230 -1.450 -1.590 -1.700 -1.820 -1.980 -2.170 -2.240 -10.000 -1.250 0.050 1.730 3.450 4.790 5.460 5.340 4.540 3.320 1.950 0.600 -0.620 -1.610 -2.300 -2.600 10.400 -1.910 -1.080 -0.220 0.560 1.140 1.530 1.720 1.740 1.560 1.150 0.610 0.040 -0.360 -0.460 -0.260 16.290 0.500 0.720 0.820 1.060 1.730 3.020 4.870 6.960 8.780 9.870 9.930 8.920 6.930 4.190 1.040 83.640 -4.240 -4.990 -3.910 -1.500 0.870 1.330 -1.610 -8.040 -16.400 -23.800 -27.450 -25.870 -19.520 -10.260 -0.320 -53.530 15.160 18.620 17.960 12.400 2.240 -10.640 -22.990 -31.440 -34.080 -31.290 -25.300 -18.720 -13.130 -8.440 -3.620 -184.630 8.610 14.420 18.120 19.060 17.740 15.320 12.960 11.180 9.680 7.920 5.510 2.790 0.570 -0.280 0.680 -37.210 6.330 9.290 11.340 12.220 11.900 10.510 8.320 5.700 3.360 2.020 2.220 3.880 6.150 7.720 7.460 76.220 0.930 -3.610 -7.340 -9.640 -10.530 -10.480 -10.030 -9.470 -8.830 -8.050 -7.180 -6.330 -5.660 -5.310 -5.200 -35.690 -5.050 -4.660 -3.960 -3.050 -2.090 -1.330 -0.990 -1.220 -1.900 -2.770 -3.460 -3.680 -3.420 -2.870 -2.320 -80.470 -1.910 -1.850 -1.380 -0.160 2.000 4.990 8.420 11.610 13.990 15.040 14.700 13.210 11.160 9.130 7.500 32.390 5.650 4.980 4.200 3.300 2.440 1.780 1.430 1.360 1.420 1.410 1.230 0.910 0.590 0.440 0.510 64.690 0.600 0.150 -0.730 -1.790 -2.640 -2.900 -2.500 -1.670 -0.780 -0.210 -0.080 -0.300 -0.650 -0.940 -1.150 47.780 -1.550 -1.860 -2.160 -2.320 -2.270 -1.970 -1.480 -0.970 -0.600 -0.540 -0.850 -1.490 -2.250 -2.890 -3.230 18.180 -2.790 -2.210 -1.580 -0.960 -0.430 -0.030 0.190 0.220 0.150 0.190 0.590 1.490 2.830 4.360 5.720 32.520 6.990 7.060 7.120 7.370 7.750 8.000 7.850 7.210 6.280 5.300 4.360 3.190 1.280 -1.740 -5.750 94.710 -13.750 -16.130 -17.220 -17.560 -18.000 -19.000 -20.400 -21.630 -22.050 -21.470 -20.110 -18.340 -16.380 -13.990 -10.620 -177.760 0.440 7.600 14.600 20.330 23.920 25.260 24.780 23.360 21.830 20.700 19.830 18.790 17.040 14.450 11.360 94.890 5.910 3.900 1.600 -1.890 -7.100 -13.660 -20.310 -25.400 -27.480 -26.000 -21.260 -14.480 -7.240 -1.230 2.200 -55.310 -1.200 -7.450 -15.230 -22.910 -28.850 -31.610 -30.200 -24.410 -14.830 -2.970 9.100 19.360 26.430 30.140 31.360 -87.110 31.600 32.100 32.490 31.940 29.780 25.950 20.930 15.540 10.710 7.100 5.070 4.590 5.290 6.330 6.640 183.990 0.580 -6.990 -16.930 -27.400 -35.900 -40.070 -38.590 -31.710 -21.180 -9.630 0.470 7.520 11.150 12.000 11.060 7.620 7.140 4.940 2.850 1.110 0.070 -0.050 0.670 1.690 2.180 1.340 -1.170 -4.920 -8.860 -11.590 -12.070 -19.250 -6.850 -3.660 -2.220 -3.360 -6.700 -10.830 -13.980 -14.830 -13.180 -9.750 -5.970 -3.270 -2.630 -4.560 -8.970 -145.260 -22.030 -27.210 -28.400 -23.710 -12.790 2.490 18.420 30.780 36.550 35.150 28.670 20.650 14.420 11.810 12.560 -32.840 17.470 18.700 18.570 17.590 16.180 14.530 12.410 9.740 6.780 4.110 2.410 2.000 2.690 3.890 4.940 124.520 5.080 4.330 3.510 3.080 3.490 4.960 7.270 9.640 10.850 9.620 5.220 -2.090 -11.130 -20.300 -28.320 95.000 -39.680 -43.130 -44.120 -40.660 -30.580 -13.140 9.710 33.390 52.050 60.970 58.380 46.200 28.770 11.060 -3.390 167.600 -18.930 -21.730 -22.660 -22.180 -20.290 -17.010 -12.740 -8.270 -4.500 -2.140 -1.390 -1.930 -2.940 -3.500 -3.000 2.990 0.670 2.280 2.590 1.460 -0.670 -2.950 -4.770 -6.070 -7.360 -9.240 -11.860 -14.740 -16.910 -17.540 -16.240 -111.710 -9.670 -5.890 -2.420 0.650 3.340 5.440 6.630 6.650 5.670 4.250 3.210 3.180 4.310 6.310 8.580 -61.000 11.540 11.630 10.750 9.060 6.780 4.140 1.570 -0.570 -1.960 -2.460 -2.250 -1.640 -0.980 -0.450 -0.100 -15.710 0.570 0.880 0.960 0.650 -0.060 -0.960 -1.720 -2.050 -1.880 -1.400 -0.980 -0.980 -1.450 -2.160 -2.610 -31.130 -0.750 1.710 4.550 7.040 8.530 8.750 7.820 6.150 4.250 2.450 0.920 -0.310 -1.300 -2.070 -2.610 11.160 -2.810 -2.530 -2.120 -1.690 -1.380 -1.350 -1.670 -2.420 -3.510 -4.810 -6.200 -7.530 -8.800 -9.950 -10.890 -67.920 -11.230 -10.050 -7.790 -4.570 -0.770 3.190 7.010 10.380 13.160 15.060 15.870 15.460 14.000 11.990 10.150 23.040 9.210 10.420 12.260 14.190 15.590 16.060 15.310 13.260 10.070 6.060 1.770 -2.250 -5.550 -7.900 -9.360 112.080 -10.420 -10.470 -10.340 -10.070 -9.660 -9.200 -8.710 -8.170 -7.500 -6.550 -5.210 -3.460 -1.550 0.210 1.380 14.100 1.260 0.220 -1.000 -1.980 -2.540 -2.680 -2.590 -2.440 -2.430 -2.570 -2.860 -3.230 -3.590 -3.860 -3.870 -23.700 -3.100 -2.410 -1.670 -1.020 -0.650 -0.750 -1.630 -3.490 -6.380 -9.850 -13.170 -15.490 -16.490 -16.300 -15.510 -145.880 -12.150 -8.070 -1.150 8.360 18.830 27.610 32.340 31.990 27.370 20.720 14.420 10.120 8.070 7.650 7.810 55.920 7.590 6.980 6.190 5.200 3.900 2.100 -0.190 -2.900 -5.700 -8.230 -10.230 -11.580 -12.490 -13.270 -14.250 -6.480 -16.770 -17.480 -17.060 -15.210 -12.090 -8.270 -4.460 -1.320 0.820 1.900 2.120 1.800 1.310 0.990 1.190 -86.940 3.570 5.430 7.290 8.870 10.030 10.910 11.640 12.240 12.500 12.060 10.640 8.220 5.170 2.120 -0.310 31.670 -2.240 -2.010 -1.550 -1.140 -0.870 -0.540 0.220 1.680 3.820 6.390 8.830 10.550 11.220 10.700 9.220 93.060 4.690 2.250 0.000 -1.840 -3.050 -3.520 -3.330 -2.850 -2.510 -2.710 -3.520 -4.730 -5.950 -6.940 -7.570 43.520 -8.270 -8.530 -8.670 -8.590 -8.290 -7.990 -7.940 -8.360 -9.090 -9.680 -9.520 -8.140 -5.490 -2.040 1.400 -61.670 5.290 5.130 3.910 2.100 0.170 -1.570 -2.910 -3.810 -4.230 -4.190 -3.790 -3.160 -2.480 -1.810 -1.110 -74.350 0.980 2.440 4.020 5.480 6.570 7.240 7.550 7.580 7.350 6.710 5.530 3.720 1.510 -0.610 -1.940 -12.180 -0.460 2.160 5.220 7.870 9.500 9.940 9.340 8.080 6.480 4.730 2.920 1.110 -0.560 -1.860 -2.600 46.950 -2.340 -1.620 -0.790 -0.030 0.490 0.710 0.630 0.310 -0.140 -0.570 -0.910 -1.140 -1.320 -1.550 -1.940 34.250 -3.100 -3.600 -3.680 -3.070 -1.660 0.490 3.020 5.460 7.400 8.530 8.820 8.430 7.530 6.330 4.930 83.470 1.710 -0.100 -1.970 -3.780 -5.450 -6.870 -8.050 -8.990 -9.730 -10.250 -10.460 -10.320 -9.750 -8.860 -7.850 -24.260 -6.540 -6.530 -6.910 -7.550 -8.290 -8.860 -8.920 -8.080 -6.010 -2.650 1.700 6.340 10.450 13.310 14.510 -34.160 12.580 10.390 7.960 5.560 3.280 1.200 -0.540 -1.740 -2.230 -1.990 -1.170 -0.180 0.600 0.910 0.740 1.450 -0.270 -0.590 -0.700 -0.670 -0.700 -0.900 -1.300 -1.820 -2.250 -2.370 -1.950 -0.930 0.610 2.400 4.100 -0.570 5.890 5.750 5.070 4.020 2.740 1.310 -0.300 -2.000 -3.630 -4.870 -5.480 -5.340 -4.520 -3.240 -1.860 -7.620 0.410 1.140 1.600 1.800 1.700 1.320 0.650 -0.180 -1.090 -2.010 -2.850 -3.450 -3.550 -2.950 -1.510 -16.020 2.890 4.900 6.220 6.640 6.330 5.510 4.390 3.110 1.660 0.110 -1.330 -2.420 -2.920 -2.700 -1.950 13.430 -0.160 0.290 0.330 0.100 -0.210 -0.450 -0.610 -0.750 -1.010 -1.480 -2.200 -3.110 -4.030 -4.750 -5.010 -14.180 -3.270 -1.230 1.220 3.640 5.550 6.620 6.840 6.340 5.350 4.060 2.560 0.950 -0.620 -1.960 -2.820 15.920 -2.900 -2.360 -1.730 -1.200 -0.860 -0.710 -0.690 -0.780 -0.950 -1.110 -1.250 -1.360 -1.540 -1.870 -2.430 -8.930 -3.670 -3.730 -2.990 -1.410 0.820 3.170 5.080 6.180 6.340 5.760 4.790 3.690 2.600 1.480 0.270 18.510 -1.990 -2.650 -2.790 -2.450 -1.820 -1.180 -0.650 -0.330 -0.170 -0.140 -0.170 -0.270 -0.450 -0.680 -1.040 0.190 -2.200 -2.980 -3.700 -4.110 -3.960 -3.060 -1.470 0.610 2.740 4.540 5.630 5.950 5.600 4.790 3.790 15.050 1.550 0.360 -0.830 -1.810 -2.330 -2.270 -1.710 -0.910 -0.210 0.140 0.090 -0.230 -0.600 -0.850 -0.940 3.560 -0.920 -1.060 -1.420 -2.020 -2.820 -3.670 -4.340 -4.520 -4.030 -2.750 -0.830 1.420 3.580 5.240 6.170 -2.060 5.940 5.140 4.130 2.920 1.560 0.100 -1.240 -2.200 -2.560 -2.310 -1.650 -0.920 -0.370 -0.140 -0.160 5.950 -0.290 -0.310 -0.390 -0.640 -1.060 -1.580 -2.110 -2.590 -3.020 -3.410 -3.740 -3.870 -3.550 -2.600 -0.980 -23.060 3.330 5.170 6.280 6.570 6.150 5.280 4.190 3.050 1.910 0.790 -0.330 -1.310 -2.020 -2.280 -2.060 10.210 -0.640 0.110 0.520 0.520 0.120 -0.480 -1.090 -1.540 -1.770 -1.760 -1.680 -1.580 -1.580 -1.740 -2.080 -7.050 -3.160 -3.640 -3.750 -3.290 -2.130 -0.370 1.720 3.730 5.270 6.140 6.290 5.820 4.950 3.820 2.570 18.210 0.110 -0.820 -1.390 -1.550 -1.370 -0.990 -0.570 -0.260 -0.090 -0.080 -0.110 -0.170 -0.200 -0.250 -0.370 9.490 -0.980 -1.410 -1.800 -2.050 -2.120 -2.040 -1.890 -1.800 -1.790 -1.920 -2.190 -2.500 -2.780 -2.850 -2.530 -22.830 -0.270 1.500 3.300 4.770 5.620 5.750 5.270 4.430 3.460 2.490 1.550 0.670 -0.170 -0.890 -1.340 11.850 -1.220 -0.680 -0.040 0.510 0.810 0.810 0.530 0.120 -0.300 -0.660 -0.900 -1.100 -1.280 -1.510 -1.750 3.280 -1.930 -1.790 -1.530 -1.320 -1.270 -1.450 -1.810 -2.220 -2.540 -2.660 -2.560 -2.170 -1.530 -0.540 0.740 -19.100 3.620 4.710 5.270 5.190 4.600 3.670 2.630 1.630 0.710 -0.100 -0.780 -1.270 -1.490 -1.400 -1.010 6.470 0.210 0.640 0.750 0.540 0.080 -0.430 -0.820 -1.010 -1.000 -0.900 -0.870 -1.010 -1.290 -1.610 -1.830 -3.920 -1.670 -1.390 -1.170 -1.120 -1.250 -1.530 -1.860 -2.150 -2.340 -2.320 -2.000 -1.230 -0.010 1.570 3.200 -14.640 5.310 5.370 4.810 3.850 2.660 1.450 0.270 -0.730 -1.480 -1.860 -1.770 -1.290 -0.550 0.210 0.800 3.550 1.180 0.990 0.680 0.340 0.030 -0.240 -0.500 -0.800 -1.170 -1.530 -1.810 -1.910 -1.810 -1.540 -1.230 -6.800 -1.000 -1.200 -1.530 -1.870 -2.120 -2.160 -1.910 -1.330 -0.430 0.750 2.080 3.380 4.450 5.050 5.060 4.870 3.310 1.890 0.470 -0.730 -1.530 -1.910 -1.900 -1.610 -1.120 -0.580 -0.080 0.280 0.490 0.540 0.540 3.440 0.480 0.380 0.140 -0.280 -0.870 -1.500 -1.990 -2.230 -2.150 -1.810 -1.320 -0.820 -0.470 -0.360 -0.570 -11.050 -1.850 -2.520 -2.830 -2.540 -1.500 0.150 2.030 3.720 4.810 5.130 4.750 3.870 2.770 1.670 0.670 7.090 -0.880 -1.370 -1.640 -1.610 -1.320 -0.850 -0.270 0.240 0.580 0.680 0.580 0.380 0.160 -0.030 -0.200 1.130 -0.730 -1.110 -1.520 -1.850 -2.030 -2.060 -1.920 -1.680 -1.410 -1.200 -1.140 -1.280 -1.550 -1.740 -1.590 -22.560 0.370 1.930 3.410 4.530 5.050 5.000 4.500 3.720 2.750 1.660 0.530 -0.480 -1.240 -1.590 -1.480 5.050 -0.480 0.000 0.230 0.230 0.080 -0.060 -0.130 -0.100 -0.080 -0.160 -0.400 -0.740 -1.060 -1.270 -1.270 -1.330 -1.010 -0.860 -0.750 -0.680 -0.680 -0.760 -0.980 -1.320 -1.620 -1.610 -1.090 0.000 1.460 2.900 3.910 -0.220 3.790 2.880 1.820 0.860 0.140 -0.330 -0.640 -0.800 -0.830 -0.690 -0.410 -0.040 0.280 0.480 0.530 7.280 0.330 0.170 0.010 -0.220 -0.500 -0.840 -1.160 -1.390 -1.500 -1.480 -1.450 -1.530 -1.820 -2.300 -2.870 -12.500 -3.110 -2.340 -0.970 0.730 2.350 3.530 4.060 3.960 3.450 2.760 2.060 1.370 0.670 -0.080 -0.830 3.610 -1.940 -2.110 -1.980 -1.640 -1.150 -0.660 -0.210 0.150 0.430 0.640 0.820 0.970 0.990 0.830 0.380 -1.190 -1.120 -1.870 -2.430 -2.770 -2.920 -2.920 -2.700 -2.110 -1.090 0.350 2.010 3.560 4.690 5.230 5.190 4.520 3.630 2.360 0.910 -0.550 -1.790 -2.590 -2.860 -2.600 -1.960 -1.100 -0.240 0.520 1.020 1.240 1.130 2.430 0.350 -0.070 -0.310 -0.430 -0.500 -0.670 -1.020 -1.520 -2.070 -2.540 -2.720 -2.480 -1.670 -0.310 1.460 -8.720 4.940 5.900 6.120 5.650 4.710 3.550 2.320 1.110 0.000 -0.910 -1.460 -1.600 -1.380 -0.950 -0.450 18.840 0.450 0.940 1.450 1.930 2.270 2.360 2.250 2.020 1.810 1.670 1.580 1.510 1.460 1.450 1.630 45.730 2.970 4.190 5.670 7.150 8.420 9.280 9.590 9.170 7.780 5.220 1.360 -3.540 -8.880 -13.720 -17.120 54.840 -17.620 -15.150 -11.850 -8.560 -5.820 -3.830 -2.480 -1.550 -1.000 -0.920 -1.510 -2.770 -4.410 -5.960 -6.900 -42.680 -7.120 -7.190 -7.670 -8.240 -8.230 -6.940 -4.230 -0.700 2.660 4.970 6.040 6.260 6.220 6.230 6.030 -49.510 2.960 -0.150 -3.560 -6.470 -8.300 -8.970 -8.720 -7.790 -6.280 -4.170 -1.580 0.940 2.720 3.080 1.960 -94.010 -2.410 -3.910 -4.270 -3.570 -2.180 -0.440 1.660 4.260 7.430 10.910 14.070 16.220 16.890 16.050 14.180 2.780 9.770 8.010 6.530 5.080 3.440 1.640 -0.140 -1.620 -2.510 -2.640 -1.920 -0.510 1.260 2.990 4.240 41.210 4.780 4.430 4.030 3.700 3.280 2.460 1.030 -1.000 -3.320 -5.490 -7.020 -7.680 -7.340 -6.170 -4.270 20.720 0.580 2.870 4.550 5.330 5.070 3.880 2.040 0.000 -1.840 -3.180 -3.920 -4.150 -4.030 -3.730 -3.340 18.030 -2.230 -1.570 -0.980 -0.620 -0.570 -0.900 -1.460 -2.070 -2.530 -2.700 -2.570 -2.240 -1.870 -1.650 -1.680 -9.620 -2.520 -3.050 -3.300 -2.970 -1.910 -0.110 2.170 4.470 6.330 7.390 7.480 6.690 5.230 3.380 1.400 20.650 -1.850 -2.760 -3.080 -2.900 -2.380 -1.720 -1.070 -0.530 -0.150 0.090 0.140 0.020 -0.220 -0.520 -0.800 1.920 -1.170 -1.380 -1.670 -2.000 -2.320 -2.470 -2.370 -2.020 -1.560 -1.220 -1.200 -1.610 -2.290 -2.910 -3.040 -29.630 -0.690 1.660 4.230 6.460 7.840 8.170 7.470 6.040 4.250 2.440 0.820 -0.510 -1.550 -2.260 -2.570 9.770 -1.750 -0.790 0.250 1.080 1.490 1.480 1.150 0.720 0.250 -0.180 -0.590 -1.000 -1.360 -1.580 -1.630 5.750 -1.480 -1.470 -1.610 -1.860 -2.110 -2.250 -2.230 -2.030 -1.760 -1.530 -1.430 -1.580 -1.920 -2.380 -2.740 -25.340 -2.070 -0.720 1.230 3.500 5.640 7.210 7.940 7.720 6.680 5.120 3.340 1.600 0.040 -1.280 -2.300 15.410 -3.010 -2.530 -1.580 -0.440 0.540 1.040 0.930 0.420 -0.230 -0.690 -0.870 -0.820 -0.720 -0.790 -1.080 4.060 -1.990 -2.370 -2.570 -2.590 -2.440 -2.240 -2.040 -1.920 -1.960 -2.130 -2.370 -2.520 -2.310 -1.530 -0.070 -24.990 4.370 6.590 8.230 8.940 8.630 7.440 5.690 3.730 1.870 0.290 -0.950 -1.760 -2.170 -2.180 -1.810 20.780 -0.330 0.390 0.840 0.910 0.650 0.170 -0.340 -0.750 -1.010 -1.210 -1.420 -1.730 -2.100 -2.430 -2.630 7.160 -2.440 -2.150 -1.900 -1.780 -1.860 -2.040 -2.230 -2.330 -2.250 -2.000 -1.680 -1.410 -1.360 -1.680 -2.320 -25.410 -3.790 -3.830 -2.970 -1.060 1.640 4.590 7.170 8.850 9.370 8.780 7.370 5.520 3.520 1.630 -0.040 19.990 -2.220 -2.560 -2.420 -1.880 -1.170 -0.460 0.130 0.540 0.820 0.920 0.850 0.550 0.060 -0.530 -1.010 10.350 -1.280 -1.200 -1.190 -1.370 -1.750 -2.140 -2.370 -2.370 -2.150 -1.850 -1.640 -1.620 -1.850 -2.280 -2.810 -20.730 -3.280 -2.770 -1.550 0.370 2.660 4.950 6.720 7.650 7.570 6.580 4.990 3.200 1.500 0.120 -0.880 15.570 -1.920 -2.060 -1.960 -1.570 -0.970 -0.260 0.440 0.970 1.230 1.200 0.900 0.420 -0.110 -0.640 -1.060 8.840 -1.540 -1.690 -1.870 -2.060 -2.280 -2.440 -2.430 -2.220 -1.840 -1.430 -1.120 -0.990 -1.110 -1.440 -1.880 -19.880 -2.820 -3.060 -2.920 -2.160 -0.640 1.540 4.050 6.360 7.930 8.370 7.690 6.170 4.230 2.290 0.550 16.800 -2.030 -2.780 -3.000 -2.640 -1.730 -0.520 0.590 1.300 1.430 1.090 0.540 0.080 -0.140 -0.160 -0.180 8.260 -0.900 -1.660 -2.450 -3.050 -3.290 -3.140 -2.690 -2.160 -1.710 -1.460 -1.460 -1.700 -2.050 -2.370 -2.410 -26.190 -0.820 0.930 3.060 5.160 6.790 7.610 7.490 6.550 5.020 3.180 1.340 -0.340 -1.680 -2.620 -3.100 9.260 -2.710 -1.990 -1.110 -0.220 0.490 0.910 1.030 0.860 0.540 0.180 -0.140 -0.390 -0.670 -1.040 -1.500 1.470 -2.460 -2.660 -2.600 -2.320 -1.950 -1.640 -1.520 -1.630 -1.940 -2.390 -2.850 -3.100 -2.970 -2.190 -0.730 -30.110 3.750 5.980 7.630 8.350 8.100 7.000 5.340 3.480 1.620 -0.030 -1.410 -2.420 -3.010 -3.090 -2.660 6.710 -0.800 0.120 0.680 0.820 0.600 0.240 -0.070 -0.230 -0.250 -0.270 -0.480 -0.940 -1.600 -2.290 -2.850 -3.680 -2.920 -2.470 -1.970 -1.590 -1.530 -1.820 -2.310 -2.810 -3.010 -2.670 -1.660 0.050 2.260 4.610 6.660 -6.880 8.280 7.570 6.050 4.080 2.110 0.380 -0.980 -1.890 -2.410 -2.550 -2.330 -1.790 -1.000 -0.200 0.460 9.700 0.820 0.610 0.320 0.070 -0.120 -0.340 -0.650 -1.170 -1.840 -2.510 -2.990 -3.130 -2.870 -2.320 -1.680 -9.270 -0.990 -1.170 -1.650 -2.260 -2.790 -3.020 -2.710 -1.720 -0.020 2.190 4.540 6.530 7.740 7.920 7.140 16.110 3.810 1.890 0.110 -1.410 -2.570 -3.270 -3.440 -3.080 -2.310 -1.340 -0.410 0.300 0.730 0.880 0.820 7.500 0.440 0.150 -0.290 -0.880 -1.600 -2.300 -2.820 -2.980 -2.740 -2.220 -1.660 -1.280 -1.250 -1.550 -2.000 -17.870 -2.460 -2.060 -1.160 0.210 1.890 3.700 5.310 6.480 6.990 6.790 5.950 4.640 3.030 1.330 -0.340 20.690 -2.770 -3.260 -3.190 -2.650 -1.800 -0.890 -0.100 0.450 0.720 0.790 0.670 0.410 0.010 -0.540 -1.180 5.500 -2.420 -2.730 -2.700 -2.360 -1.900 -1.540 -1.490 -1.840 -2.480 -3.250 -3.840 -3.960 -3.370 -1.900 0.350 -26.840 5.780 7.830 8.800 8.570 7.320 5.470 3.420 1.490 -0.230 -1.640 -2.690 -3.310 -3.340 -2.790 -1.830 5.310 0.240 0.810 0.970 0.810 0.510 0.220 0.000 -0.220 -0.540 -1.050 -1.740 -2.440 -3.000 -3.200 -3.040 -8.960 -2.050 -1.640 -1.530 -1.800 -2.350 -3.010 -3.440 -3.290 -2.270 -0.300 2.360 5.150 7.410 8.590 8.480 8.590 5.340 3.300 1.490 0.030 -1.050 -1.780 -2.160 -2.160 -1.790 -1.160 -0.410 0.260 0.720 0.950 0.930 11.800 0.330 -0.180 -0.720 -1.310 -1.890 -2.470 -2.950 -3.290 -3.410 -3.210 -2.750 -2.160 -1.680 -1.540 -1.880 -19.870 -3.190 -3.310 -2.490 -0.600 2.100 4.970 7.310 8.580 8.570 7.450 5.660 3.710 1.880 0.360 -0.840 18.580 -2.210 -2.320 -2.000 -1.440 -0.780 -0.290 -0.050 -0.030 -0.080 -0.070 0.050 0.190 0.170 -0.180 -0.860 6.970 -2.460 -2.850 -2.770 -2.270 -1.590 -1.010 -0.780 -1.030 -1.690 -2.580 -3.360 -3.700 -3.280 -1.940 0.190 -21.430 5.150 6.930 7.710 7.450 6.320 4.740 3.010 1.360 -0.120 -1.370 -2.350 -2.880 -2.830 -2.230 -1.250 8.030 0.690 1.170 1.300 1.190 1.010 0.770 0.450 0.000 -0.610 -1.290 -1.940 -2.430 -2.740 -2.800 -2.660 -2.180 -1.880 -1.430 -1.120 -1.010 -1.160 -1.540 -2.030 -2.500 -2.730 -2.490 -1.630 -0.100 1.870 3.970 5.710 -3.540 6.840 6.110 4.840 3.310 1.790 0.430 -0.720 -1.650 -2.260 -2.540 -2.380 -1.820 -0.970 0.020 0.870 9.740 1.510 1.230 0.700 0.150 -0.290 -0.550 -0.700 -0.870 -1.170 -1.600 -2.060 -2.350 -2.380 -2.110 -1.650 -3.600 -0.960 -1.010 -1.400 -1.960 -2.510 -2.870 -2.860 -2.400 -1.410 0.050 1.820 3.650 5.200 6.150 6.380 8.110 4.720 3.260 1.750 0.330 -0.870 -1.790 -2.370 -2.530 -2.260 -1.590 -0.670 0.220 0.900 1.180 1.110 10.240 0.260 -0.190 -0.540 -0.790 -0.960 -1.140 -1.310 -1.490 -1.640 -1.700 -1.660 -1.480 -1.260 -0.990 -0.780 -6.100 -0.740 -1.010 -1.490 -2.130 -2.810 -3.250 -3.190 -2.440 -0.910 1.170 3.390 5.250 6.380 6.600 6.010 9.590 3.460 2.000 0.590 -0.710 -1.770 -2.420 -2.530 -2.090 -1.260 -0.280 0.550 1.110 1.370 1.390 1.240 11.190 0.500 -0.050 -0.620 -1.100 -1.410 -1.600 -1.790 -2.060 -2.400 -2.700 -2.790 -2.580 -2.100 -1.500 -1.030 -12.900 -1.030 -1.510 -2.110 -2.580 -2.710 -2.290 -1.210 0.440 2.520 4.620 6.340 7.240 7.170 6.170 4.530 15.400 1.010 -0.340 -1.280 -1.880 -2.160 -2.100 -1.690 -0.980 -0.130 0.650 1.120 1.180 0.840 0.290 -0.230 9.100 -0.760 -0.790 -0.850 -1.020 -1.390 -1.880 -2.310 -2.540 -2.460 -2.090 -1.570 -1.080 -0.750 -0.650 -0.750 -12.730 -1.210 -1.520 -1.810 -2.020 -1.930 -1.320 -0.110 1.670 3.630 5.370 6.430 6.580 5.880 4.560 2.990 15.910 0.110 -0.950 -1.760 -2.280 -2.450 -2.280 -1.750 -1.010 -0.240 0.360 0.700 0.770 0.640 0.450 0.280 6.630 -0.020 -0.220 -0.530 -0.960 -1.460 -1.910 -2.200 -2.240 -1.990 -1.580 -1.140 -0.840 -0.790 -0.980 -1.290 -13.170 -1.970 -2.130 -2.050 -1.580 -0.570 0.930 2.760 4.530 5.810 6.280 5.880 4.770 3.290 1.740 0.400 14.300 -1.320 -1.730 -1.900 -1.840 -1.580 -1.160 -0.600 0.040 0.630 1.060 1.210 1.030 0.590 0.020 -0.510 7.370 -1.050 -1.120 -1.210 -1.400 -1.680 -1.940 -2.070 -2.030 -1.810 -1.500 -1.230 -1.020 -0.960 -1.050 -1.310 -15.650 -1.880 -1.840 -1.280 -0.100 1.590 3.460 5.110 6.140 6.320 5.660 4.400 2.840 1.270 -0.110 -1.190 12.760 -2.480 -2.660 -2.530 -2.060 -1.350 -0.490 0.340 0.920 1.200 1.100 0.770 0.310 -0.160 -0.530 -0.830 3.230 -1.360 -1.670 -2.020 -2.300 -2.430 -2.260 -1.800 -1.160 -0.510 -0.150 -0.240 -0.760 -1.500 -2.070 -2.050 -20.260 0.400 2.440 4.360 5.720 6.220 5.830 4.800 3.370 1.910 0.540 -0.630 -1.550 -2.200 -2.530 -2.450 3.970 -1.250 -0.400 0.350 0.850 0.970 0.780 0.410 0.010 -0.320 -0.550 -0.700 -0.950 -1.300 -1.730 -2.160 -4.400 -2.290 -1.920 -1.370 -0.850 -0.580 -0.610 -0.970 -1.480 -1.970 -2.220 -2.040 -1.340 -0.120 1.480 3.170 -12.900 5.530 5.770 5.340 4.420 3.200 1.870 0.580 -0.580 -1.520 -2.130 -2.370 -2.200 -1.710 -1.020 -0.300 2.280 0.720 0.890 0.840 0.620 0.260 -0.120 -0.530 -0.950 -1.370 -1.790 -2.180 -2.460 -2.490 -2.220 -1.660 -11.190 -0.520 -0.400 -0.690 -1.330 -2.060 -2.580 -2.650 -2.070 -0.800 0.980 3.040 4.920 6.240 6.730 6.330 9.160 3.650 2.000 0.490 -0.760 -1.730 -2.370 -2.660 -2.540 -2.000 -1.140 -0.160 0.710 1.230 1.310 1.030 6.840 0.260 0.100 0.040 -0.060 -0.420 -1.030 -1.830 -2.540 -2.890 -2.810 -2.360 -1.780 -1.350 -1.210 -1.430 -14.330 -2.340 -2.600 -2.420 -1.630 -0.190 1.700 3.760 5.570 6.800 7.250 6.890 5.840 4.310 2.520 0.660 20.790 -2.310 -3.090 -3.340 -3.080 -2.520 -1.770 -0.990 -0.270 0.280 0.590 0.660 0.520 0.330 0.190 0.120 6.100 -0.310 -0.910 -1.680 -2.430 -2.850 -2.850 -2.450 -1.920 -1.490 -1.320 -1.460 -1.800 -2.210 -2.540 -2.600 -24.940 -1.240 0.380 2.490 4.680 6.450 7.370 7.290 6.320 4.860 3.270 1.830 0.580 -0.540 -1.520 -2.280 12.360 -2.470 -1.770 -0.730 0.330 1.110 1.440 1.280 0.760 0.090 -0.540 -1.050 -1.420 -1.710 -1.960 -2.170 1.210 -2.390 -2.290 -2.070 -1.770 -1.500 -1.320 -1.320 -1.500 -1.860 -2.320 -2.730 -2.880 -2.570 -1.590 0.040 -24.730 4.300 6.130 7.240 7.440 6.780 5.440 3.720 1.900 0.230 -1.170 -2.200 -2.780 -2.900 -2.520 -1.760 4.380 0.280 1.120 1.590 1.720 1.580 1.280 0.910 0.480 -0.040 -0.690 -1.380 -1.990 -2.420 -2.550 -2.430 -0.330 -1.910 -1.710 -1.630 -1.660 -1.780 -2.010 -2.230 -2.260 -1.870 -0.880 0.770 2.850 4.930 6.520 7.210 10.920 5.760 4.150 2.430 0.800 -0.610 -1.820 -2.770 -3.380 -3.530 -3.170 -2.340 -1.290 -0.280 0.440 0.770 6.800 0.440 0.090 -0.280 -0.630 -1.010 -1.470 -1.930 -2.290 -2.430 -2.300 -2.000 -1.670 -1.490 -1.530 -1.780 -15.610 -2.440 -2.650 -2.590 -2.130 -1.120 0.550 2.720 5.040 6.960 8.010 7.940 6.810 5.020 2.920 0.910 19.490 -2.250 -3.240 -3.720 -3.610 -2.970 -1.970 -0.830 0.210 0.960 1.430 1.610 1.530 1.230 0.670 -0.060 7.570 -1.670 -2.280 -2.560 -2.600 -2.400 -2.160 -1.970 -1.940 -2.090 -2.410 -2.730 -2.890 -2.710 -2.010 -0.720 -24.410 3.320 5.420 6.980 7.630 7.200 5.810 3.830 1.720 -0.150 -1.550 -2.450 -2.920 -3.030 -2.830 -2.370 0.530 -0.850 -0.030 0.630 1.040 1.110 0.830 0.260 -0.450 -1.100 -1.610 -1.910 -2.080 -2.220 -2.400 -2.640 -13.740 -2.990 -3.030 -2.960 -2.720 -2.130 -1.050 0.680 2.910 5.300 7.280 8.380 8.320 7.200 5.330 3.210 21.210 -0.380 -1.550 -2.280 -2.630 -2.570 -2.140 -1.410 -0.480 0.420 1.130 1.530 1.570 1.300 0.810 0.240 14.470 -0.770 -1.130 -1.450 -1.740 -2.050 -2.380 -2.670 -2.880 -2.960 -2.980 -2.900 -2.680 -2.190 -1.310 0.020 -13.870 3.520 5.100 6.110 6.400 5.920 4.840 3.360 1.750 0.210 -1.080 -2.010 -2.540 -2.660 -2.440 -2.010 9.210 -0.680 0.030 0.650 1.010 1.030 0.660 0.000 -0.780 -1.460 -1.890 -2.020 -1.950 -1.850 -1.840 -1.980 -4.130 -2.580 -2.830 -2.930 -2.820 -2.380 -1.500 -0.110 1.700 3.670 5.370 6.420 6.530 5.740 4.340 2.720 18.440 0.000 -0.910 -1.570 -2.020 -2.200 -2.070 -1.610 -0.940 -0.230 0.290 0.490 0.340 -0.130 -0.740 -1.310 4.120 -1.880 -1.830 -1.630 -1.360 -1.160 -1.050 -1.140 -1.450 -2.000 -2.700 -3.230 -3.320 -2.630 -1.040 1.270 -17.160 6.140 7.550 7.810 6.960 5.360 3.470 1.710 0.260 -0.860 -1.770 -2.500 -3.020 -3.160 -2.740 -1.800 5.730 0.690 1.480 1.700 1.380 0.750 0.010 -0.610 -1.070 -1.340 -1.450 -1.430 -1.340 -1.270 -1.370 -1.840 -2.710 -3.980 -5.250 -6.060 -5.920 -4.550 -2.090 0.980 3.870 5.910 6.740 6.410 5.280 3.830 2.450 1.270 6.560 -0.280 -0.660 -0.760 -0.600 -0.210 0.280 0.780 1.150 1.360 1.320 1.010 0.490 -0.210 -0.930 -1.540 5.800 -2.190 -2.280 -2.350 -2.460 -2.660 -2.930 -3.180 -3.320 -3.180 -2.650 -1.570 -0.020 1.860 3.790 5.400 -5.530 6.620 6.070 4.910 3.390 1.810 0.330 -0.900 -1.870 -2.550 -2.930 -3.000 -2.720 -2.070 -1.140 -0.120 1.010 1.140 1.080 0.640 0.030 -0.560 -0.940 -1.200 -1.350 -1.520 -1.750 -1.990 -2.270 -2.600 -2.980 -3.340 -20.110 -3.230 -2.280 -0.650 1.470 3.660 5.480 6.620 6.960 6.520 5.520 4.140 2.610 1.070 -0.320 -1.380 14.000 -2.330 -2.200 -1.750 -1.140 -0.470 0.120 0.530 0.670 0.500 0.070 -0.510 -1.030 -1.380 -1.480 -1.390 0.950 -1.220 -1.370 -1.640 -1.970 -2.280 -2.580 -2.840 -3.020 -2.990 -2.460 -1.290 0.540 2.770 4.920 6.480 -0.860 6.800 5.670 4.070 2.340 0.680 -0.720 -1.820 -2.540 -2.840 -2.730 -2.270 -1.550 -0.790 -0.080 0.450 4.580 0.850 0.750 0.440 -0.040 -0.630 -1.230 -1.710 -1.970 -1.990 -1.810 -1.600 -1.510 -1.670 -2.070 -2.630 -15.320 -3.180 -2.730 -1.630 0.000 1.950 3.870 5.390 6.230 6.320 5.720 4.610 3.230 1.710 0.240 -1.120 13.010 -3.050 -3.360 -3.150 -2.450 -1.470 -0.440 0.450 1.020 1.250 1.140 0.800 0.310 -0.230 -0.720 -1.110 0.590 -1.640 -1.880 -2.130 -2.410 -2.710 -2.950 -3.080 -2.930 -2.370 -1.280 0.320 2.200 4.060 5.500 6.230 1.700 5.430 4.240 2.830 1.350 -0.090 -1.390 -2.490 -3.150 -3.290 -2.910 -2.140 -1.250 -0.490 -0.030 0.170 -1.320 0.190 0.190 0.140 -0.030 -0.370 -0.830 -1.320 -1.720 -2.060 -2.330 -2.640 -3.010 -3.300 -3.300 -2.690 -25.750 0.640 2.970 5.110 6.630 7.220 6.930 5.970 4.640 3.200 1.750 0.300 -1.160 -2.530 -3.540 -4.040 4.480 -3.030 -1.820 -0.520 0.550 1.170 1.270 0.950 0.370 -0.340 -1.000 -1.550 -1.930 -2.160 -2.280 -2.340 -10.660 -2.720 -3.110 -3.490 -3.620 -3.230 -2.050 -0.110 2.310 4.720 6.560 7.470 7.360 6.450 5.070 3.560 16.540 0.570 -0.840 -2.070 -2.950 -3.250 -2.950 -2.100 -1.040 -0.070 0.600 0.860 0.790 0.530 0.220 -0.080 4.350 -0.790 -1.260 -1.760 -2.230 -2.680 -3.050 -3.340 -3.590 -3.730 -3.620 -3.090 -1.950 -0.170 2.140 4.590 -13.490 7.940 8.100 7.230 5.660 3.860 2.160 0.710 -0.510 -1.630 -2.590 -3.240 -3.360 -2.820 -1.750 -0.490 6.350 1.110 1.070 0.590 -0.060 -0.630 -1.020 -1.230 -1.400 -1.560 -1.800 -2.070 -2.380 -2.740 -3.130 -3.500 -16.110 -3.560 -2.880 -1.560 0.310 2.520 4.710 6.440 7.430 7.480 6.660 5.160 3.280 1.320 -0.410 -1.730 16.520 -2.840 -2.700 -2.200 -1.500 -0.650 0.140 0.820 1.210 1.240 0.900 0.270 -0.490 -1.190 -1.700 -1.970 3.770 -2.160 -2.240 -2.340 -2.450 -2.530 -2.620 -2.740 -2.810 -2.650 -1.990 -0.650 1.310 3.620 5.730 7.120 3.870 6.830 5.410 3.630 1.820 0.180 -1.230 -2.300 -3.020 -3.250 -2.990 -2.220 -1.190 -0.090 0.820 1.380 9.180 1.310 0.870 0.300 -0.270 -0.810 -1.270 -1.610 -1.890 -2.050 -2.130 -2.180 -2.250 -2.430 -2.750 -3.140 -14.550 -3.360 -2.680 -1.230 0.850 3.220 5.360 6.760 7.160 6.520 5.150 3.450 1.800 0.400 -0.700 -1.540 14.390 -2.650 -2.770 -2.470 -1.760 -0.810 0.140 0.870 1.230 1.230 0.970 0.530 -0.020 -0.660 -1.330 -1.940 2.580 -2.540 -2.490 -2.330 -2.230 -2.360 -2.690 -3.130 -3.390 -3.180 -2.240 -0.560 1.640 3.940 5.840 6.910 0.800 6.280 4.980 3.430 1.880 0.470 -0.770 -1.820 -2.570 -2.940 -2.870 -2.370 -1.530 -0.550 0.410 1.130 5.450 1.420 0.950 0.220 -0.590 -1.310 -1.790 -1.990 -1.960 -1.850 -1.800 -1.920 -2.260 -2.780 -3.320 -3.690 -20.770 -2.750 -1.180 0.940 3.270 5.320 6.680 7.120 6.650 5.460 3.850 2.110 0.480 -0.920 -1.970 -2.630 8.770 -2.780 -2.370 -1.740 -0.990 -0.250 0.350 0.720 0.810 0.640 0.290 -0.150 -0.610 -1.020 -1.360 -1.600 -3.060 -1.920 -2.080 -2.300 -2.630 -3.010 -3.290 -3.240 -2.630 -1.310 0.620 2.890 5.010 6.510 7.100 6.740 9.030 4.100 2.470 0.910 -0.470 -1.640 -2.510 -2.970 -2.940 -2.420 -1.590 -0.660 0.150 0.710 0.940 0.930 4.750 0.360 -0.080 -0.550 -0.990 -1.340 -1.540 -1.650 -1.680 -1.740 -1.870 -2.100 -2.420 -2.760 -2.970 -2.900 -21.850 -1.240 0.460 2.590 4.730 6.430 7.270 7.030 5.790 3.940 1.980 0.310 -0.880 -1.610 -2.060 -2.330 8.150 -2.200 -1.570 -0.570 0.570 1.500 1.910 1.710 0.970 -0.020 -0.990 -1.730 -2.150 -2.270 -2.230 -2.120 -3.080 -1.990 -1.990 -2.000 -2.060 -2.150 -2.260 -2.230 -1.840 -0.910 0.650 2.680 4.790 6.450 7.240 6.980 14.100 4.090 2.250 0.590 -0.720 -1.690 -2.370 -2.740 -2.800 -2.450 -1.810 -0.950 -0.140 0.410 0.580 0.440 6.880 -0.280 -0.580 -0.780 -0.930 -1.120 -1.400 -1.750 -2.120 -2.420 -2.610 -2.680 -2.720 -2.830 -2.970 -3.030 -24.070 -1.880 -0.420 1.530 3.640 5.460 6.660 7.040 6.580 5.470 3.960 2.340 0.840 -0.410 -1.320 -1.890 11.370 -2.120 -1.810 -1.260 -0.560 0.140 0.670 0.940 0.880 0.570 0.100 -0.420 -0.890 -1.250 -1.530 -1.720 1.240 -1.970 -2.090 -2.250 -2.470 -2.730 -2.970 -3.110 -3.030 -2.600 -1.710 -0.350 1.400 3.340 5.110 6.400 -0.860 6.610 5.550 3.990 2.250 0.570 -0.840 -1.890 -2.500 -2.680 -2.480 -1.990 -1.350 -0.700 -0.130 0.310 4.440 0.720 0.710 0.530 0.210 -0.240 -0.740 -1.260 -1.740 -2.120 -2.370 -2.460 -2.380 -2.230 -2.120 -2.200 -15.740 -2.890 -3.070 -2.710 -1.560 0.330 2.660 4.890 6.540 7.270 7.040 6.080 4.690 3.120 1.580 0.150 17.300 -1.940 -2.360 -2.330 -1.900 -1.290 -0.660 -0.130 0.230 0.440 0.530 0.500 0.340 0.080 -0.300 -0.770 6.430 -1.880 -2.420 -2.790 -2.910 -2.750 -2.380 -1.970 -1.690 -1.670 -1.920 -2.360 -2.760 -2.880 -2.440 -1.250 -26.980 3.040 5.380 7.160 7.950 7.650 6.460 4.790 3.030 1.400 0.010 -1.130 -2.030 -2.590 -2.680 -2.340 7.470 -0.840 -0.130 0.350 0.560 0.580 0.480 0.300 0.030 -0.330 -0.810 -1.360 -1.930 -2.380 -2.690 -2.720 -5.900 -2.060 -1.590 -1.230 -1.160 -1.380 -1.880 -2.440 -2.800 -2.730 -2.060 -0.730 1.110 3.190 5.140 6.590 -2.640 7.190 6.340 4.970 3.310 1.590 -0.040 -1.470 -2.550 -3.140 -3.140 -2.530 -1.480 -0.290 0.690 1.190 9.190 0.850 0.430 0.150 0.030 -0.040 -0.220 -0.640 -1.230 -1.860 -2.320 -2.560 -2.550 -2.360 -2.080 -1.780 -8.500 -1.330 -1.310 -1.510 -1.940 -2.450 -2.820 -2.750 -1.950 -0.320 1.970 4.500 6.650 7.910 8.000 7.010 16.470 3.400 1.650 0.190 -0.990 -1.900 -2.520 -2.720 -2.380 -1.580 -0.520 0.470 1.090 1.290 1.210 1.060 15.270 1.170 1.280 1.190 0.810 0.200 -0.520 -1.130 -1.490 -1.580 -1.400 -0.970 -0.340 0.310 0.720 0.500 13.510 -2.080 -3.570 -4.000 -2.610 0.820 5.780 11.110 15.500 17.910 17.830 15.340 10.900 5.120 -1.310 -7.630 79.620 -16.650 -18.020 -17.010 -13.970 -9.730 -5.200 -1.150 2.080 4.680 7.200 10.180 13.650 16.860 18.220 16.190 96.840 -0.040 -11.580 -22.070 -29.190 -32.000 -30.830 -26.880 -21.440 -15.340 -9.150 -3.410 1.070 3.570 3.850 2.620 -92.720 1.260 3.230 6.660 10.060 11.730 10.680 6.900 1.440 -4.250 -8.860 -11.660 -12.490 -11.600 -9.410 -6.330 -108.130 0.660 3.300 4.520 4.040 2.090 -0.670 -3.330 -5.140 -5.710 -5.080 -3.580 -1.590 0.520 2.620 4.540 -104.800 7.200 7.450 6.810 5.550 4.220 3.560 4.280 6.710 10.730 15.660 20.530 24.310 26.200 25.960 23.850 108.900 17.390 14.750 13.090 12.080 11.010 9.070 5.770 1.260 -3.790 -8.430 -11.760 -13.340 -13.290 -12.300 -11.420 107.440 -13.150 -15.910 -19.090 -21.700 -23.020 -22.820 -21.210 -18.460 -14.660 -9.870 -4.410 1.020 5.280 7.360 6.800 -52.240 0.850 -1.540 -1.910 -0.130 2.940 6.120 8.320 9.210 9.110 8.590 8.100 7.630 6.790 5.190 2.680 19.340 -3.350 -5.580 -6.680 -6.690 -5.930 -4.900 -3.950 -3.220 -2.670 -2.190 -1.690 -1.210 -0.830 -0.650 -0.700 -31.790 -1.110 -1.130 -0.930 -0.560 -0.180 -0.060 -0.370 -1.180 -2.290 -3.360 -3.900 -3.400 -1.670 1.150 4.430 -38.980 9.170 9.460 8.380 6.490 4.540 3.110 2.380 2.160 2.130 2.030 1.810 1.610 1.630 2.000 2.600 23.770 3.670 3.680 3.250 2.430 1.380 0.290 -0.690 -1.480 -1.990 -2.220 -2.190 -1.970 -1.650 -1.400 -1.330 21.980 -2.120 -2.900 -3.740 -4.410 -4.680 -4.390 -3.380 -1.710 0.410 2.640 4.540 5.780 6.170 5.820 4.910 28.680 2.520 1.280 0.050 -1.100 -2.070 -2.680 -2.810 -2.460 -1.790 -1.030 -0.370 0.010 0.120 0.000 -0.220 17.640 -0.750 -1.030 -1.310 -1.580 -1.780 -1.890 -1.890 -1.860 -1.900 -2.060 -2.430 -2.890 -3.340 -3.560 -3.320 -16.460 -1.090 0.770 2.730 4.430 5.500 5.790 5.370 4.480 3.370 2.270 1.260 0.420 -0.220 -0.610 -0.710 16.750 -0.260 0.010 0.170 0.190 0.090 -0.090 -0.340 -0.710 -1.200 -1.730 -2.170 -2.390 -2.410 -2.270 -2.120 -0.540 -2.100 -2.190 -2.280 -2.370 -2.400 -2.370 -2.110 -1.490 -0.420 1.100 2.830 4.460 5.640 6.150 5.910 12.910 3.930 2.750 1.700 0.870 0.190 -0.410 -0.940 -1.270 -1.320 -1.010 -0.440 0.210 0.680 0.850 0.690 19.700 -0.130 -0.500 -0.800 -1.110 -1.500 -2.020 -2.590 -3.120 -3.480 -3.610 -3.610 -3.630 -3.800 -4.170 -4.600 -23.760 -4.420 -3.360 -1.730 0.160 1.860 3.020 3.490 3.390 2.880 2.220 1.490 0.750 0.010 -0.660 -1.150 -17.160 -1.140 -0.640 0.070 0.780 1.370 1.800 2.110 2.310 2.390 2.300 1.970 1.380 0.620 -0.120 -0.720 -3.710 -1.110 -1.100 -1.090 -1.200 -1.400 -1.660 -1.850 -1.930 -1.780 -1.340 -0.510 0.730 2.340 4.140 5.840 1.420 7.500 7.080 5.970 4.480 2.990 1.750 0.900 0.370 -0.010 -0.340 -0.700 -1.060 -1.380 -1.540 -1.550 24.530 -1.040 -0.710 -0.510 -0.550 -0.830 -1.240 -1.580 -1.710 -1.640 -1.460 -1.400 -1.580 -2.010 -2.560 -3.060 -0.790 -3.670 -3.790 -3.800 -3.560 -2.850 -1.570 0.280 2.400 4.370 5.740 6.290 5.970 5.020 3.800 2.600 18.020 0.830 0.250 -0.160 -0.460 -0.590 -0.470 -0.110 0.380 0.860 1.120 1.070 0.760 0.290 -0.200 -0.570 20.150 -1.120 -1.310 -1.460 -1.560 -1.590 -1.680 -1.920 -2.450 -3.270 -4.240 -5.090 -5.510 -5.200 -4.090 -2.220 -22.430 2.530 4.490 5.630 5.760 4.970 3.570 1.980 0.520 -0.590 -1.320 -1.690 -1.850 -1.800 -1.630 -1.360 -4.210 -0.560 -0.100 0.330 0.640 0.730 0.540 0.050 -0.570 -1.180 -1.630 -1.840 -1.850 -1.720 -1.540 -1.340 -15.500 -1.340 -1.710 -2.310 -2.930 -3.220 -2.820 -1.580 0.360 2.570 4.570 5.930 6.500 6.380 5.710 4.730 8.850 2.140 0.700 -0.670 -1.800 -2.520 -2.770 -2.580 -2.080 -1.430 -0.790 -0.260 0.070 0.110 -0.110 -0.550 -4.820 -1.630 -1.940 -1.970 -1.670 -1.220 -0.790 -0.580 -0.720 -1.160 -1.720 -2.170 -2.210 -1.670 -0.520 1.110 -20.760 4.510 5.550 5.890 5.550 4.690 3.530 2.290 1.020 -0.270 -1.510 -2.580 -3.310 -3.530 -3.220 -2.430 -6.000 -0.450 0.320 0.730 0.850 0.750 0.520 0.240 -0.060 -0.380 -0.740 -1.060 -1.350 -1.580 -1.760 -1.970 -14.140 -2.390 -2.360 -1.910 -0.880 0.710 2.650 4.520 6.000 6.720 6.600 5.750 4.390 2.750 1.060 -0.550 16.920 -3.160 -3.870 -4.000 -3.560 -2.640 -1.530 -0.590 -0.010 0.130 -0.030 -0.240 -0.340 -0.290 -0.140 -0.030 -3.440 -0.240 -0.550 -1.050 -1.670 -2.430 -3.150 -3.560 -3.370 -2.410 -0.720 1.370 3.460 5.080 5.990 6.130 5.100 4.720 3.530 2.190 0.820 -0.540 -1.710 -2.560 -2.910 -2.710 -1.970 -0.890 0.210 1.000 1.240 0.880 6.470 -0.830 -1.510 -1.760 -1.640 -1.340 -1.150 -1.240 -1.680 -2.310 -2.930 -3.370 -3.490 -3.200 -2.350 -0.930 -22.220 3.290 5.410 6.930 7.580 7.230 6.150 4.660 3.050 1.480 -0.050 -1.520 -2.850 -3.790 -4.180 -3.890 4.240 -1.900 -0.740 0.160 0.720 0.890 0.760 0.410 -0.050 -0.490 -0.900 -1.240 -1.580 -1.960 -2.390 -2.840 -10.140 -3.510 -3.560 -3.350 -2.730 -1.610 0.040 2.090 4.240 6.060 7.220 7.460 6.860 5.580 3.960 2.300 21.670 -0.510 -1.550 -2.320 -2.810 -2.960 -2.650 -1.950 -0.960 0.040 0.770 1.050 0.830 0.280 -0.430 -1.050 5.980 -1.680 -1.730 -1.690 -1.630 -1.610 -1.700 -1.910 -2.230 -2.540 -2.700 -2.470 -1.680 -0.340 1.410 3.190 -8.700 5.420 5.440 4.830 3.800 2.550 1.280 0.100 -0.950 -1.780 -2.330 -2.570 -2.460 -2.020 -1.340 -0.520 1.010 0.870 1.100 0.920 0.390 -0.330 -1.010 -1.520 -1.800 -1.920 -2.030 -2.170 -2.400 -2.660 -2.890 -2.950 -20.090 -1.980 -0.720 1.000 2.960 4.810 6.180 6.840 6.730 5.970 4.750 3.250 1.570 -0.180 -1.850 -3.190 12.060 -4.100 -3.570 -2.660 -1.610 -0.700 -0.020 0.370 0.550 0.560 0.380 0.100 -0.260 -0.610 -0.910 -1.170 -3.030 -1.850 -2.400 -3.060 -3.630 -3.890 -3.570 -2.590 -0.950 1.110 3.230 5.020 6.200 6.620 6.320 5.440 13.130 2.630 0.960 -0.680 -2.100 -3.150 -3.620 -3.470 -2.740 -1.640 -0.410 0.650 1.310 1.460 1.130 0.510 3.760 -0.800 -1.180 -1.380 -1.520 -1.710 -1.980 -2.340 -2.720 -3.040 -3.260 -3.240 -2.840 -1.910 -0.380 1.630 -19.120 5.730 7.040 7.440 6.950 5.690 4.020 2.240 0.670 -0.590 -1.450 -1.970 -2.170 -2.070 -1.660 -0.960 9.690 0.690 1.170 1.140 0.610 -0.230 -1.030 -1.580 -1.750 -1.660 -1.520 -1.550 -1.800 -2.240 -2.680 -2.920 -8.570 -2.540 -1.880 -0.910 0.390 2.010 3.870 5.700 7.160 7.880 7.620 6.440 4.620 2.570 0.760 -0.600 33.120 -1.690 -1.580 -1.170 -0.510 0.320 1.230 2.160 2.930 3.500 3.780 3.810 3.630 3.330 2.940 2.450 60.020 0.870 -0.150 -1.110 -1.750 -1.920 -1.720 -1.420 -1.350 -1.540 -1.720 -1.480 -0.480 1.100 2.650 3.340 55.900 0.250 -3.040 -6.410 -9.050 -10.550 -10.890 -10.270 -9.000 -7.280 -5.290 -3.230 -1.360 -0.020 0.460 0.000 -21.040 -2.950 -4.470 -5.340 -5.330 -4.550 -3.320 -2.050 -1.010 -0.190 0.540 1.320 2.200 3.100 3.990 4.820 -28.590 6.550 7.270 7.590 7.320 6.350 4.740 2.730 0.570 -1.530 -3.330 -4.690 -5.510 -5.760 -5.490 -4.790 -20.180 -2.000 0.030 2.230 4.150 5.250 5.200 4.070 2.360 0.710 -0.380 -0.790 -0.810 -0.840 -1.150 -1.650 -5.720 -1.660 -0.840 0.170 0.710 0.380 -0.820 -2.410 -3.800 -4.620 -4.990 -5.240 -5.620 -5.990 -5.830 -4.740 -53.700 -0.250 1.640 2.220 1.390 -0.340 -2.120 -3.330 -3.770 -3.650 -3.420 -3.200 -2.810 -1.750 0.500 4.050 -59.970 13.260 17.130 19.460 19.960 18.810 16.490 13.490 10.210 6.730 3.150 -0.300 -3.280 -5.390 -6.410 -6.530 50.550 -6.220 -6.990 -8.840 -11.650 -15.010 -18.310 -21.020 -22.700 -23.150 -22.330 -20.290 -17.260 -13.560 -9.610 -5.730 -174.160 1.610 5.370 9.340 13.220 16.460 18.380 18.710 17.740 16.370 15.530 15.830 17.060 18.480 19.180 18.590 64.490 14.280 11.760 9.590 7.750 5.950 3.910 1.620 -0.680 -2.590 -3.910 -4.730 -5.260 -5.810 -6.480 -7.160 75.160 -7.480 -6.890 -6.000 -5.090 -4.440 -4.230 -4.400 -4.840 -5.350 -5.780 -6.020 -6.010 -5.850 -5.560 -5.180 -12.640 -4.010 -3.110 -1.970 -0.720 0.540 1.640 2.500 3.060 3.350 3.340 3.050 2.520 1.790 1.000 0.310 0.480 -0.380 -0.360 -0.230 -0.070 0.100 0.240 0.420 0.570 0.670 0.590 0.300 -0.200 -0.800 -1.350 -1.740 -3.760 -2.200 -2.500 -2.880 -3.280 -3.540 -3.460 -3.010 -2.230 -1.280 -0.260 0.670 1.510 2.150 2.570 2.730 -16.170 2.270 1.880 1.530 1.280 1.090 0.910 0.630 0.290 -0.070 -0.300 -0.350 -0.200 0.040 0.270 0.390 -6.070 0.450 0.470 0.510 0.580 0.580 0.550 0.460 0.270 0.080 -0.160 -0.430 -0.650 -0.730 -0.610 -0.240 -4.580 1.090 1.840 2.460 2.870 3.030 2.990 2.820 2.610 2.430 2.260 2.080 1.830 1.550 1.310 1.150 28.860 1.170 1.250 1.250 1.110 0.850 0.500 0.170 -0.100 -0.210 -0.240 -0.240 -0.330 -0.530 -0.860 -1.240 29.840 -1.800 -1.940 -1.930 -1.830 -1.550 -1.170 -0.750 -0.450 -0.460 -0.910 -1.830 -3.070 -4.460 -5.700 -6.530 -11.330 -6.400 -5.500 -4.310 -3.150 -2.190 -1.570 -1.300 -1.370 -1.710 -2.230 -2.720 -2.980 -2.800 -2.110 -1.050 -52.580 1.130 1.760 1.970 1.870 1.610 1.340 1.200 1.320 1.800 2.670 3.840 5.040 5.940 6.270 5.910 -3.930 3.690 2.340 1.070 -0.020 -0.980 -1.800 -2.380 -2.560 -2.260 -1.520 -0.520 0.480 1.190 1.470 1.360 -3.370 0.580 0.250 0.000 -0.160 -0.290 -0.350 -0.310 -0.140 0.040 0.140 -0.010 -0.460 -1.020 -1.360 -1.120 -7.620 1.670 3.610 5.260 6.180 6.220 5.560 4.470 3.250 2.100 1.060 0.160 -0.600 -1.190 -1.610 -1.930 24.350 -2.580 -2.940 -3.260 -3.460 -3.440 -3.230 -2.760 -2.120 -1.340 -0.530 0.130 0.570 0.720 0.730 0.700 2.300 0.930 1.080 1.200 1.260 1.390 1.670 2.110 2.570 2.880 2.920 2.650 2.200 1.650 1.050 0.420 28.000 -1.020 -1.690 -2.170 -2.420 -2.470 -2.480 -2.550 -2.750 -2.980 -3.160 -3.140 -2.970 -2.650 -2.250 -1.790 -9.760 -0.700 -0.160 0.230 0.330 0.150 -0.340 -0.980 -1.660 -2.170 -2.400 -2.220 -1.640 -0.710 0.330 1.280 -18.440 2.380 2.500 2.420 2.190 1.770 1.210 0.530 -0.090 -0.500 -0.590 -0.430 -0.100 0.190 0.390 0.470 -5.610 0.550 0.600 0.660 0.640 0.470 0.150 -0.310 -0.810 -1.250 -1.560 -1.700 -1.630 -1.450 -1.160 -0.840 -13.800 -0.370 -0.280 -0.210 -0.030 0.360 0.980 1.730 2.430 2.950 3.150 3.050 2.710 2.220 1.720 1.210 8.570 0.360 0.030 -0.200 -0.300 -0.240 -0.080 0.140 0.270 0.260 0.040 -0.270 -0.520 -0.640 -0.560 -0.420 6.090 -0.410 -0.640 -0.910 -1.100 -1.200 -1.180 -1.110 -1.030 -0.820 -0.400 0.260 1.090 1.890 2.420 2.540 7.750 1.710 1.070 0.490 0.010 -0.430 -0.880 -1.350 -1.800 -2.190 -2.450 -2.490 -2.380 -2.060 -1.590 -0.990 -7.960 0.130 0.400 0.360 0.080 -0.240 -0.360 -0.150 0.340 0.910 1.270 1.240 0.810 0.160 -0.430 -0.770 -4.930 -0.300 0.320 0.980 1.600 2.090 2.400 2.510 2.360 1.970 1.320 0.540 -0.210 -0.790 -1.140 -1.250 6.240 -1.200 -1.230 -1.260 -1.270 -1.150 -0.910 -0.540 -0.200 0.050 0.080 -0.070 -0.300 -0.530 -0.620 -0.600 -4.030 -0.460 -0.500 -0.670 -0.970 -1.260 -1.500 -1.520 -1.250 -0.630 0.290 1.380 2.340 3.020 3.220 2.970 2.810 1.670 1.040 0.530 0.100 -0.330 -0.820 -1.300 -1.630 -1.660 -1.290 -0.660 0.020 0.510 0.630 0.390 -0.030 -0.450 -0.700 -0.740 -0.620 -0.490 -0.450 -0.510 -0.650 -0.760 -0.840 -0.880 -0.910 -0.900 -0.810 -0.470 -9.990 1.180 2.270 3.150 3.560 3.380 2.680 1.670 0.600 -0.350 -1.120 -1.670 -2.060 -2.250 -2.230 -2.030 -4.850 -1.180 -0.690 -0.240 0.130 0.320 0.350 0.260 0.130 0.130 0.270 0.520 0.730 0.770 0.550 0.150 -2.920 -0.580 -0.690 -0.640 -0.470 -0.170 0.330 1.030 1.910 2.800 3.440 3.640 3.360 2.750 1.970 1.230 17.550 -0.060 -0.710 -1.400 -1.990 -2.440 -2.660 -2.690 -2.620 -2.480 -2.320 -2.090 -1.780 -1.450 -1.110 -0.800 -9.590 -0.330 -0.160 -0.050 -0.060 -0.180 -0.430 -0.770 -1.160 -1.590 -1.970 -2.260 -2.270 -1.840 -0.880 0.520 -20.960 3.430 4.370 4.720 4.560 4.020 3.270 2.480 1.740 1.100 0.620 0.320 0.190 0.210 0.330 0.530 11.610 0.740 0.590 0.230 -0.380 -1.080 -1.750 -2.260 -2.600 -2.770 -2.810 -2.760 -2.610 -2.370 -2.110 -1.860 -13.880 -1.550 -1.350 -0.900 -0.080 1.090 2.400 3.580 4.360 4.590 4.330 3.800 3.140 2.470 1.770 1.000 14.910 -0.690 -1.320 -1.580 -1.430 -1.050 -0.630 -0.440 -0.550 -0.960 -1.550 -2.170 -2.660 -2.920 -2.890 -2.640 -10.820 -1.940 -1.870 -2.100 -2.580 -3.120 -3.570 -3.720 -3.550 -3.030 -2.230 -1.100 0.310 1.930 3.560 4.990 -22.860 6.440 6.350 5.820 5.020 4.020 2.880 1.600 0.190 -1.200 -2.350 -3.030 -3.090 -2.560 -1.640 -0.600 -4.740 0.780 0.930 0.760 0.390 -0.090 -0.620 -1.170 -1.710 -2.220 -2.720 -3.160 -3.530 -3.720 -3.710 -3.520 -31.330 -3.060 -2.940 -2.610 -1.720 0.140 3.070 6.640 10.020 12.160 12.280 10.300 6.780 2.820 -0.420 -2.210 17.500 -1.490 -0.110 1.150 2.030 2.690 3.420 4.520 6.060 8.010 10.090 12.010 13.310 13.490 12.240 9.550 120.210 1.480 -2.670 -6.260 -9.260 -11.930 -14.830 -18.450 -23.100 -28.510 -33.810 -37.660 -38.650 -35.890 -29.420 -20.320 -199.330 -1.010 6.340 11.370 14.350 15.720 15.980 15.450 14.420 13.190 12.100 11.580 11.810 12.940 14.730 16.640 4.150 17.670 15.620 11.970 7.540 3.380 0.380 -1.210 -1.740 -1.880 -2.220 -2.960 -3.910 -4.680 -5.000 -4.840 27.920 -3.760 -3.230 -2.870 -2.710 -2.880 -3.390 -4.090 -4.630 -4.500 -3.310 -0.910 2.340 5.770 8.680 10.480 29.930 10.480 9.200 7.520 5.680 3.780 1.910 0.170 -1.250 -2.130 -2.380 -2.080 -1.440 -0.840 -0.570 -0.700 56.100 -1.750 -2.210 -2.450 -2.540 -2.680 -3.070 -3.720 -4.570 -5.300 -5.670 -5.550 -4.970 -4.150 -3.400 -2.970 -1.850 -3.300 -3.870 -4.460 -4.810 -4.730 -3.960 -2.360 0.090 3.140 6.320 9.000 10.660 11.010 10.090 8.240 35.110 3.470 1.220 -0.680 -2.080 -2.920 -3.070 -2.610 -1.720 -0.780 -0.100 0.100 -0.120 -0.520 -0.780 -0.750 23.290 -0.220 -0.250 -0.760 -1.710 -2.810 -3.740 -4.250 -4.180 -3.660 -2.890 -2.190 -1.850 -2.050 -2.720 -3.660 -18.080 -4.570 -3.800 -2.030 0.460 3.280 5.840 7.710 8.630 8.550 7.590 5.950 3.940 1.800 -0.130 -1.600 21.100 -2.610 -2.190 -1.400 -0.530 0.220 0.690 0.870 0.800 0.610 0.340 0.020 -0.360 -0.840 -1.400 -1.970 10.930 -2.740 -2.840 -2.750 -2.560 -2.380 -2.360 -2.570 -3.010 -3.560 -3.950 -3.810 -2.890 -1.090 1.400 4.120 -13.460 8.280 8.960 8.540 7.210 5.240 2.990 0.810 -1.000 -2.280 -2.990 -3.170 -2.980 -2.550 -2.000 -1.380 9.470 -0.160 0.340 0.630 0.650 0.400 -0.090 -0.730 -1.330 -1.830 -2.120 -2.220 -2.210 -2.210 -2.360 -2.710 -9.720 -3.910 -4.590 -5.180 -5.430 -5.120 -3.980 -1.940 0.940 4.210 7.310 9.600 10.620 10.250 8.710 6.460 22.230 1.800 0.050 -1.110 -1.810 -2.130 -2.170 -1.970 -1.590 -1.070 -0.500 0.020 0.390 0.570 0.530 0.300 13.410 -0.770 -1.530 -2.290 -2.930 -3.310 -3.390 -3.250 -3.030 -2.860 -2.880 -3.150 -3.640 -4.210 -4.610 -4.480 -36.390 -1.400 1.530 4.840 7.850 9.900 10.640 10.130 8.690 6.770 4.720 2.790 1.040 -0.480 -1.710 -2.560 23.400 -2.890 -2.460 -1.830 -1.210 -0.740 -0.500 -0.440 -0.520 -0.670 -0.850 -1.140 -1.570 -2.100 -2.710 -3.240 -3.070 -3.700 -3.590 -3.340 -3.120 -3.070 -3.320 -3.780 -4.240 -4.360 -3.740 -2.120 0.420 3.550 6.650 9.060 -11.460 10.260 9.040 7.060 4.770 2.520 0.500 -1.080 -2.210 -2.830 -2.950 -2.650 -2.060 -1.290 -0.480 0.300 8.390 1.360 1.450 1.180 0.580 -0.210 -1.020 -1.730 -2.220 -2.530 -2.710 -2.840 -2.960 -3.060 -3.200 -3.440 -16.770 -4.290 -4.630 -4.500 -3.550 -1.620 1.110 4.110 6.700 8.320 8.770 8.100 6.660 4.840 2.910 1.100 16.790 -1.710 -2.510 -2.840 -2.740 -2.290 -1.670 -0.970 -0.300 0.270 0.640 0.740 0.570 0.170 -0.350 -0.930 1.380 -2.050 -2.570 -2.980 -3.270 -3.400 -3.430 -3.480 -3.680 -4.040 -4.360 -4.230 -3.270 -1.290 1.550 4.740 -26.760 9.550 10.250 9.720 8.200 6.100 3.780 1.550 -0.390 -1.900 -2.880 -3.330 -3.270 -2.790 -2.040 -1.190 4.160 0.070 0.210 0.030 -0.310 -0.660 -0.820 -0.850 -0.800 -0.820 -1.040 -1.440 -1.990 -2.650 -3.330 -4.060 -19.070 -5.320 -5.480 -5.020 -3.650 -1.400 1.510 4.620 7.320 9.070 9.640 9.060 7.660 5.880 4.040 2.330 21.910 -0.790 -2.140 -3.160 -3.690 -3.640 -3.120 -2.380 -1.640 -1.100 -0.760 -0.610 -0.540 -0.570 -0.690 -0.920 -5.050 -1.440 -1.590 -1.650 -1.710 -1.940 -2.420 -3.150 -3.900 -4.390 -4.240 -3.190 -1.140 1.650 4.770 7.620 -12.120 10.520 10.160 8.730 6.530 4.020 1.520 -0.680 -2.430 -3.640 -4.260 -4.310 -3.770 -2.810 -1.530 -0.270 6.430 1.360 1.450 1.090 0.440 -0.330 -1.080 -1.680 -2.080 -2.230 -2.260 -2.280 -2.410 -2.790 -3.360 -3.940 -17.980 -4.220 -3.430 -1.870 0.400 3.090 5.740 7.790 8.780 8.590 7.350 5.520 3.550 1.730 0.160 -1.220 21.560 -3.360 -3.880 -3.780 -3.050 -1.860 -0.500 0.700 1.460 1.740 1.570 1.070 0.390 -0.330 -1.110 -1.850 6.190 -3.200 -3.660 -3.910 -4.010 -4.050 -4.090 -4.050 -3.770 -2.970 -1.480 0.700 3.210 5.580 7.300 8.060 3.680 6.780 5.210 3.310 1.320 -0.660 -2.370 -3.580 -4.110 -3.820 -2.880 -1.540 -0.220 0.750 1.190 1.070 4.640 -0.210 -0.920 -1.450 -1.730 -1.870 -1.980 -2.230 -2.700 -3.370 -4.120 -4.720 -4.930 -4.420 -3.030 -0.790 -31.790 4.920 7.290 8.660 8.850 8.010 6.450 4.570 2.610 0.720 -1.000 -2.420 -3.350 -3.680 -3.340 -2.490 2.590 -0.420 0.230 0.460 0.280 -0.160 -0.720 -1.230 -1.590 -1.810 -1.950 -2.170 -2.640 -3.460 -4.540 -5.560 -28.760 -5.630 -4.070 -1.440 1.770 5.030 7.780 9.600 10.350 10.020 8.780 6.890 4.620 2.360 0.310 -1.350 23.750 -3.210 -3.440 -3.190 -2.520 -1.580 -0.630 0.030 0.240 -0.020 -0.530 -1.080 -1.510 -1.850 -2.180 -2.590 -3.410 -3.660 -4.230 -4.770 -5.240 -5.480 -5.180 -4.010 -1.780 1.340 4.780 7.810 9.710 10.210 9.440 7.830 19.200 3.880 2.100 0.520 -0.870 -1.960 -2.600 -2.630 -2.010 -0.900 0.390 1.480 2.010 1.890 1.160 0.040 20.550 -2.140 -2.790 -3.090 -3.170 -3.210 -3.430 -3.890 -4.560 -5.330 -5.980 -6.210 -5.820 -4.620 -2.600 0.130 -33.000 6.010 8.180 9.260 9.150 8.030 6.240 4.190 2.240 0.570 -0.630 -1.360 -1.580 -1.380 -0.840 -0.150 15.410 0.910 1.030 0.900 0.620 0.360 0.160 0.020 -0.170 -0.500 -0.990 -1.580 -2.140 -2.550 -2.740 -2.720 3.440 -2.350 -2.180 -2.150 -2.360 -2.900 -3.700 -4.540 -5.010 -4.730 -3.420 -1.120 1.850 4.920 7.480 9.040 1.690 8.660 7.030 4.890 2.600 0.450 -1.360 -2.600 -3.170 -2.970 -2.090 -0.770 0.620 1.700 2.160 1.990 20.180 0.540 -0.150 -0.560 -0.640 -0.560 -0.500 -0.590 -0.910 -1.390 -1.890 -2.310 -2.550 -2.620 -2.570 -2.510 -1.550 -2.610 -2.770 -3.030 -3.340 -3.650 -3.740 -3.330 -2.230 -0.360 2.050 4.520 6.520 7.650 7.710 6.880 14.120 3.610 1.760 0.020 -1.430 -2.430 -2.860 -2.670 -1.970 -1.010 -0.050 0.660 1.020 1.050 0.880 0.620 11.690 0.110 -0.230 -0.700 -1.300 -1.990 -2.690 -3.160 -3.360 -3.200 -2.790 -2.250 -1.760 -1.480 -1.440 -1.660 -18.260 -2.480 -2.740 -2.600 -1.830 -0.380 1.670 3.970 6.030 7.350 7.680 6.970 5.460 3.560 1.640 -0.020 14.760 -2.110 -2.550 -2.680 -2.490 -2.030 -1.370 -0.610 0.110 0.610 0.850 0.820 0.640 0.400 0.160 -0.080 4.030 -0.840 -1.380 -1.900 -2.290 -2.410 -2.250 -1.930 -1.630 -1.620 -2.030 -2.810 -3.630 -4.010 -3.490 -1.830 -29.280 3.660 6.160 7.670 7.920 7.030 5.470 3.660 1.960 0.510 -0.610 -1.460 -2.040 -2.260 -2.150 -1.750 3.320 -0.590 -0.140 0.140 0.270 0.350 0.360 0.310 0.090 -0.310 -0.890 -1.510 -2.030 -2.360 -2.490 -2.460 -10.270 -2.180 -2.040 -1.970 -2.040 -2.210 -2.380 -2.330 -1.780 -0.550 1.310 3.570 5.740 7.330 7.930 7.390 11.380 3.760 1.600 -0.200 -1.420 -2.030 -2.220 -2.070 -1.700 -1.130 -0.420 0.310 0.910 1.180 1.070 0.660 9.750 -0.530 -1.090 -1.640 -2.190 -2.750 -3.150 -3.320 -3.200 -2.880 -2.500 -2.290 -2.330 -2.530 -2.770 -2.720 -28.230 -0.740 1.250 3.570 5.660 7.060 7.440 6.850 5.590 4.050 2.540 1.220 0.050 -1.020 -1.980 -2.690 7.590 -2.930 -2.420 -1.660 -0.790 0.010 0.590 0.900 0.870 0.580 0.120 -0.440 -1.010 -1.560 -2.030 -2.300 -6.870 -2.290 -2.110 -2.050 -2.240 -2.670 -3.150 -3.350 -2.920 -1.650 0.390 2.850 5.230 6.990 7.800 7.600 8.100 4.970 3.220 1.540 0.030 -1.300 -2.420 -3.200 -3.590 -3.440 -2.810 -1.880 -0.880 -0.090 0.370 0.530 -0.360 0.360 0.160 -0.120 -0.570 -1.110 -1.670 -2.080 -2.220 -2.160 -2.050 -2.090 -2.440 -3.010 -3.460 -3.430 -28.820 -0.770 1.660 4.250 6.340 7.520 7.570 6.720 5.320 3.800 2.390 1.100 -0.150 -1.410 -2.560 -3.370 6.020 -3.090 -2.060 -0.850 0.180 0.770 0.810 0.420 -0.200 -0.820 -1.320 -1.630 -1.790 -1.860 -1.910 -1.970 -11.390 -2.260 -2.490 -2.760 -2.980 -2.920 -2.350 -1.040 0.990 3.510 5.940 7.800 8.650 8.420 7.300 5.640 23.790 1.750 -0.120 -1.810 -3.130 -3.940 -4.160 -3.790 -2.980 -1.950 -0.950 -0.160 0.260 0.310 0.060 -0.370 2.020 -1.130 -1.390 -1.640 -1.950 -2.370 -2.870 -3.330 -3.740 -4.030 -4.080 -3.760 -2.850 -1.270 0.930 3.440 -22.270 7.390 8.080 7.780 6.730 5.260 3.620 1.970 0.360 -1.170 -2.470 -3.380 -3.680 -3.300 -2.300 -1.030 1.760 0.900 0.960 0.460 -0.350 -1.110 -1.530 -1.590 -1.430 -1.270 -1.330 -1.670 -2.280 -2.990 -3.640 -4.000 -22.930 -2.920 -1.260 1.000 3.460 5.670 7.170 7.730 7.370 6.330 4.910 3.320 1.730 0.170 -1.260 -2.430 14.900 -3.320 -2.890 -2.000 -0.920 0.040 0.660 0.810 0.530 -0.030 -0.650 -1.200 -1.610 -1.870 -2.040 -2.170 -4.050 -2.370 -2.490 -2.610 -2.790 -2.900 -2.740 -2.000 -0.530 1.660 4.180 6.490 8.030 8.460 7.810 6.340 24.940 2.480 0.630 -1.010 -2.420 -3.520 -4.170 -4.230 -3.710 -2.730 -1.550 -0.500 0.130 0.250 -0.070 -0.610 2.810 -1.350 -1.360 -1.200 -1.090 -1.130 -1.380 -1.820 -2.340 -2.840 -3.190 -3.190 -2.660 -1.420 0.530 2.940 -13.360 7.120 7.910 7.560 6.320 4.590 2.810 1.200 -0.160 -1.360 -2.360 -3.060 -3.300 -2.960 -2.100 -0.990 7.870 0.590 0.660 0.330 -0.140 -0.470 -0.520 -0.360 -0.200 -0.300 -0.790 -1.670 -2.730 -3.710 -4.330 -4.450 -14.210 -2.970 -1.450 0.480 2.580 4.550 6.020 6.690 6.450 5.440 3.910 2.220 0.620 -0.750 -1.820 -2.560 12.310 -2.800 -2.310 -1.540 -0.730 -0.020 0.380 0.460 0.230 -0.120 -0.490 -0.800 -1.020 -1.260 -1.590 -2.030 -3.910 -3.100 -3.480 -3.560 -3.180 -2.240 -0.680 1.350 3.570 5.560 6.930 7.380 6.900 5.620 3.910 2.020 23.320 -1.340 -2.580 -3.430 -3.800 -3.650 -2.980 -1.890 -0.670 0.430 1.120 1.280 0.930 0.240 -0.570 -1.270 3.360 -2.110 -2.310 -2.480 -2.680 -2.930 -3.190 -3.330 -3.180 -2.520 -1.300 0.490 2.580 4.640 6.210 7.040 5.230 6.050 4.540 2.670 0.700 -1.200 -2.810 -3.950 -4.450 -4.230 -3.340 -2.070 -0.760 0.210 0.690 0.730 -1.460 0.300 0.190 0.160 0.100 -0.080 -0.400 -0.830 -1.320 -1.860 -2.380 -2.830 -3.050 -2.830 -2.050 -0.650 -17.820 3.070 4.680 5.670 5.890 5.350 4.230 2.730 1.100 -0.490 -1.890 -2.980 -3.640 -3.800 -3.440 -2.640 -5.550 -0.480 0.400 0.890 0.960 0.730 0.370 0.050 -0.110 -0.220 -0.360 -0.710 -1.260 -2.010 -2.780 -3.420 -17.240 -3.570 -2.760 -1.270 0.790 3.100 5.230 6.690 7.200 6.730 5.540 3.920 2.160 0.450 -1.140 -2.530 9.720 -4.140 -4.090 -3.430 -2.270 -0.900 0.390 1.270 1.580 1.290 0.560 -0.330 -1.090 -1.550 -1.690 -1.650 -7.940 -1.770 -2.160 -2.670 -3.160 -3.340 -2.980 -1.870 -0.010 2.350 4.830 6.850 7.970 8.010 7.050 5.460 20.180 1.720 0.010 -1.450 -2.670 -3.570 -4.030 -3.930 -3.260 -2.160 -0.880 0.290 1.060 1.310 1.060 0.480 3.920 -0.840 -1.270 -1.510 -1.620 -1.740 -1.970 -2.330 -2.820 -3.370 -3.750 -3.720 -3.090 -1.730 0.230 2.540 -18.330 6.450 7.290 7.190 6.280 4.780 3.030 1.270 -0.310 -1.590 -2.460 -2.880 -2.760 -2.180 -1.230 -0.160 5.150 1.350 1.470 1.200 0.660 0.000 -0.610 -1.120 -1.500 -1.790 -1.980 -2.170 -2.440 -2.830 -3.390 -3.980 -16.400 -4.380 -3.700 -2.250 -0.160 2.220 4.450 6.170 7.150 7.300 6.690 5.460 3.840 2.010 0.240 -1.300 14.910 -3.050 -3.120 -2.690 -1.880 -0.860 0.140 0.940 1.310 1.220 0.720 -0.020 -0.800 -1.480 -2.000 -2.360 -1.660 -2.870 -3.060 -3.200 -3.300 -3.350 -3.290 -2.970 -2.230 -0.940 0.880 2.970 4.940 6.390 7.060 6.920 8.400 4.880 3.380 1.740 0.070 -1.500 -2.790 -3.520 -3.600 -3.030 -2.010 -0.890 -0.030 0.430 0.440 0.170 1.980 -0.420 -0.530 -0.530 -0.510 -0.560 -0.750 -1.080 -1.570 -2.170 -2.780 -3.200 -3.180 -2.530 -1.170 0.760 -15.350 4.780 6.030 6.470 6.100 5.170 3.850 2.370 0.860 -0.630 -2.010 -3.160 -3.910 -4.130 -3.760 -2.840 -1.770 -0.390 0.540 0.960 0.810 0.260 -0.440 -1.060 -1.400 -1.470 -1.390 -1.300 -1.370 -1.640 -2.120 -2.730 -17.720 -3.310 -2.720 -1.290 0.850 3.340 5.610 7.120 7.620 7.150 5.950 4.400 2.790 1.260 -0.090 -1.210 17.710 -2.480 -2.510 -2.140 -1.480 -0.730 -0.040 0.360 0.410 0.110 -0.440 -1.040 -1.550 -1.870 -2.000 -2.050 -1.840 -2.190 -2.380 -2.680 -3.080 -3.530 -3.830 -3.710 -2.830 -1.100 1.300 3.960 6.270 7.720 8.090 7.450 13.720 4.420 2.720 1.190 -0.110 -1.120 -1.860 -2.260 -2.350 -2.120 -1.640 -0.980 -0.300 0.210 0.440 0.320 10.230 -0.560 -0.990 -1.310 -1.500 -1.630 -1.780 -1.950 -2.140 -2.330 -2.510 -2.780 -3.120 -3.460 -3.590 -3.190 -24.630 -0.030 2.520 5.140 7.190 8.240 8.130 7.060 5.420 3.680 2.060 0.610 -0.660 -1.760 -2.540 -2.830 15.060 -1.750 -0.740 0.160 0.660 0.640 0.230 -0.350 -0.880 -1.160 -1.220 -1.140 -1.100 -1.200 -1.490 -1.850 1.740 -2.180 -1.970 -1.550 -1.120 -0.830 -0.850 -1.210 -1.810 -2.540 -3.130 -3.330 -2.880 -1.660 0.270 2.610 -15.530 6.640 7.440 7.160 6.020 4.410 2.760 1.300 0.140 -0.760 -1.470 -1.990 -2.220 -2.060 -1.510 -0.680 9.830 0.830 1.070 0.930 0.530 0.040 -0.350 -0.530 -0.570 -0.600 -0.690 -0.920 -1.270 -1.620 -1.890 -1.970 0.950 -1.630 -1.370 -1.200 -1.190 -1.350 -1.630 -2.000 -2.400 -2.780 -3.000 -2.870 -2.140 -0.750 1.240 3.440 -13.370 6.340 6.330 5.400 3.940 2.400 1.050 -0.030 -0.900 -1.630 -2.150 -2.270 -1.870 -0.910 0.330 1.520 6.510 2.520 2.170 1.460 0.680 -0.010 -0.560 -1.000 -1.410 -1.850 -2.250 -2.550 -2.640 -2.510 -2.190 -1.760 -6.720 -0.980 -0.720 -0.640 -0.750 -1.070 -1.590 -2.160 -2.540 -2.470 -1.730 -0.330 1.520 3.430 4.960 5.860 0.040 5.390 4.300 2.870 1.290 -0.260 -1.580 -2.480 -2.810 -2.570 -1.880 -0.960 -0.100 0.550 0.870 0.900 4.300 0.410 0.080 -0.220 -0.500 -0.730 -0.960 -1.200 -1.450 -1.690 -1.840 -1.920 -1.860 -1.710 -1.500 -1.270 -13.180 -1.080 -1.260 -1.610 -1.970 -2.110 -1.690 -0.570 1.170 3.230 5.070 6.280 6.600 6.030 4.850 3.380 15.040 0.590 -0.520 -1.390 -2.060 -2.440 -2.480 -2.160 -1.530 -0.750 0.010 0.530 0.770 0.710 0.490 0.210 5.000 -0.230 -0.500 -0.910 -1.450 -2.010 -2.440 -2.590 -2.420 -2.010 -1.520 -1.060 -0.800 -0.780 -1.020 -1.520 -18.430 -2.700 -2.830 -2.180 -0.640 1.600 4.060 6.140 7.330 7.430 6.630 5.260 3.720 2.240 0.910 -0.300 16.890 -2.100 -2.460 -2.290 -1.640 -0.760 0.100 0.620 0.730 0.430 -0.050 -0.530 -0.830 -0.970 -1.060 -1.180 3.450 -1.800 -2.130 -2.310 -2.290 -2.110 -1.840 -1.580 -1.400 -1.350 -1.500 -1.830 -2.360 -2.890 -3.100 -2.670 -29.110 0.650 3.100 5.430 7.070 7.730 7.350 6.240 4.700 3.070 1.480 0.060 -1.210 -2.180 -2.770 -2.840 6.380 -1.550 -0.560 0.320 0.860 1.000 0.800 0.440 0.080 -0.230 -0.520 -0.840 -1.260 -1.760 -2.220 -2.520 -4.180 -2.410 -2.080 -1.690 -1.390 -1.260 -1.350 -1.650 -2.080 -2.510 -2.700 -2.470 -1.630 -0.170 1.780 3.920 -16.010 7.140 7.520 6.900 5.450 3.510 1.490 -0.320 -1.700 -2.550 -2.890 -2.780 -2.280 -1.500 -0.570 0.380 2.940 1.640 1.790 1.600 1.170 0.570 -0.100 -0.790 -1.480 -2.130 -2.700 -3.060 -3.150 -2.950 -2.570 -2.180 -13.400 -2.160 -2.670 -3.280 -3.630 -3.370 -2.290 -0.410 1.970 4.370 6.360 7.560 7.840 7.220 5.860 4.100 16.240 0.350 -1.150 -2.270 -2.910 -3.170 -3.090 -2.740 -2.150 -1.360 -0.430 0.440 1.090 1.320 1.030 0.300 0.870 -1.510 -2.120 -2.380 -2.350 -2.220 -2.180 -2.310 -2.590 -2.940 -3.270 -3.520 -3.630 -3.520 -3.050 -2.100 -39.450 1.240 3.160 4.810 5.920 6.500 6.620 6.480 6.070 5.160 3.530 1.220 -1.290 -3.080 -3.180 -1.110 5.510 7.770 11.860 13.540 11.790 6.550 -1.080 -9.150 -15.570 -18.650 -17.880 -13.970 -8.540 -3.350 0.490 2.860 -23.330 6.140 8.070 9.680 9.860 7.860 3.770 -1.330 -5.870 -8.690 -9.500 -8.690 -6.900 -4.440 -1.480 1.410 -20.430 1.750 -3.200 -10.910 -18.380 -21.870 -18.690 -8.900 4.480 16.930 24.660 26.280 23.150 18.040 13.440 10.390 45.100 6.260 3.420 -0.010 -3.060 -4.750 -4.680 -3.300 -1.620 -0.700 -1.100 -2.560 -4.420 -5.810 -6.190 -5.500 7.010 -2.450 -0.940 0.300 1.420 2.580 3.890 5.220 6.300 6.800 6.440 5.120 3.010 0.430 -2.090 -4.030 34.010 -4.930 -4.030 -2.740 -1.470 -0.520 -0.010 0.170 0.150 0.080 -0.010 -0.160 -0.440 -0.880 -1.410 -1.990 13.300 -2.960 -3.220 -3.310 -3.240 -3.040 -2.860 -2.800 -2.910 -3.080 -3.040 -2.490 -1.240 0.700 2.970 5.080 -5.590 7.120 6.800 5.740 4.310 2.720 1.160 -0.290 -1.520 -2.410 -2.820 -2.720 -2.160 -1.290 -0.380 0.360 9.790 0.750 0.420 -0.170 -0.830 -1.460 -1.970 -2.330 -2.590 -2.710 -2.730 -2.630 -2.420 -2.160 -2.000 -2.000 -17.220 -2.370 -2.260 -1.530 -0.060 2.030 4.360 6.430 7.810 8.260 7.770 6.510 4.750 2.810 0.890 -0.840 25.080 -3.270 -3.740 -3.650 -2.960 -1.840 -0.560 0.610 1.410 1.690 1.490 0.930 0.160 -0.720 -1.570 -2.270 8.070 -2.830 -2.610 -2.160 -1.730 -1.570 -1.790 -2.410 -3.250 -3.970 -4.290 -3.860 -2.610 -0.600 1.860 4.300 -13.160 7.440 7.590 6.790 5.290 3.430 1.520 -0.160 -1.450 -2.270 -2.610 -2.500 -2.030 -1.340 -0.510 0.270 7.210 1.270 1.350 1.100 0.630 0.000 -0.680 -1.240 -1.600 -1.740 -1.700 -1.650 -1.640 -1.760 -1.950 -2.210 -7.130 -2.880 -3.260 -3.480 -3.280 -2.380 -0.680 1.650 4.110 6.150 7.290 7.350 6.460 4.980 3.240 1.530 19.640 -1.350 -2.340 -2.920 -3.010 -2.610 -1.850 -0.930 -0.070 0.570 0.930 1.040 0.930 0.590 0.020 -0.720 6.440 -2.110 -2.470 -2.540 -2.390 -2.130 -1.900 -1.700 -1.600 -1.630 -1.840 -2.180 -2.480 -2.410 -1.650 -0.110 -20.690 4.260 6.040 6.920 6.800 5.780 4.250 2.460 0.730 -0.790 -1.960 -2.730 -2.980 -2.730 -2.090 -1.200 1.810 0.510 0.980 1.150 1.010 0.700 0.250 -0.270 -0.810 -1.350 -1.830 -2.200 -2.390 -2.340 -2.110 -1.800 -10.300 -1.650 -2.040 -2.630 -3.180 -3.290 -2.650 -1.150 0.970 3.320 5.340 6.620 7.000 6.560 5.500 4.050 14.950 0.910 -0.490 -1.590 -2.340 -2.650 -2.590 -2.190 -1.530 -0.710 0.140 0.860 1.250 1.220 0.730 -0.050 5.040 -1.500 -1.820 -1.860 -1.760 -1.720 -1.780 -1.930 -2.050 -2.090 -2.080 -2.200 -2.510 -2.900 -3.090 -2.670 -28.290 0.790 3.360 5.790 7.410 7.930 7.330 5.880 4.000 2.040 0.250 -1.240 -2.360 -3.000 -3.190 -2.890 1.650 -1.200 -0.200 0.610 1.100 1.230 1.040 0.680 0.240 -0.250 -0.760 -1.320 -1.860 -2.260 -2.360 -2.180 -7.660 -1.490 -1.400 -1.670 -2.220 -2.910 -3.430 -3.550 -2.990 -1.670 0.400 2.890 5.320 7.170 8.000 7.650 8.810 4.550 2.690 1.060 -0.240 -1.220 -1.980 -2.460 -2.570 -2.220 -1.480 -0.530 0.320 0.890 1.080 1.020 8.580 0.700 0.500 0.200 -0.330 -1.070 -1.870 -2.520 -2.880 -2.870 -2.620 -2.250 -2.000 -1.970 -2.240 -2.680 -18.400 -3.140 -2.570 -1.250 0.680 2.850 4.840 6.210 6.800 6.590 5.730 4.450 2.890 1.230 -0.400 -1.810 11.920 -3.210 -3.080 -2.500 -1.660 -0.760 0.030 0.610 0.930 0.960 0.780 0.450 0.050 -0.340 -0.660 -0.920 1.490 -1.260 -1.360 -1.440 -1.530 -1.720 -2.050 -2.540 -3.120 -3.560 -3.600 -2.980 -1.590 0.470 2.860 5.090 -10.140 7.400 7.060 5.890 4.200 2.320 0.550 -0.960 -2.100 -2.840 -3.100 -2.940 -2.390 -1.590 -0.680 0.090 1.390 0.770 0.570 0.060 -0.530 -1.070 -1.440 -1.550 -1.540 -1.490 -1.550 -1.770 -2.140 -2.630 -3.130 -3.500 -23.180 -3.340 -2.480 -1.010 0.990 3.250 5.370 6.910 7.600 7.360 6.250 4.610 2.730 0.890 -0.660 -1.840 10.890 -2.860 -2.730 -2.280 -1.570 -0.770 -0.020 0.550 0.810 0.730 0.360 -0.180 -0.720 -1.120 -1.310 -1.310 -2.780 -1.240 -1.370 -1.670 -2.110 -2.660 -3.220 -3.620 -3.650 -2.990 -1.500 0.740 3.380 5.850 7.610 8.250 6.790 6.420 4.570 2.570 0.680 -0.970 -2.300 -3.180 -3.510 -3.250 -2.510 -1.430 -0.290 0.650 1.210 1.300 7.680 0.240 -0.590 -1.390 -2.010 -2.400 -2.620 -2.740 -2.860 -2.970 -3.100 -3.200 -3.270 -3.280 -3.090 -2.530 -29.530 0.380 2.640 5.010 6.940 8.050 8.200 7.450 6.100 4.440 2.670 0.950 -0.630 -1.910 -2.720 -2.960 12.450 -1.880 -0.980 -0.190 0.370 0.600 0.550 0.280 -0.170 -0.740 -1.350 -1.880 -2.270 -2.460 -2.480 -2.450 -5.080 -2.650 -3.020 -3.420 -3.650 -3.380 -2.430 -0.760 1.420 3.620 5.430 6.460 6.590 5.960 4.890 3.620 15.920 1.000 -0.350 -1.700 -2.900 -3.660 -3.840 -3.310 -2.250 -0.870 0.460 1.520 2.140 2.280 2.030 1.510 8.820 0.160 -0.430 -0.910 -1.290 -1.620 -1.920 -2.270 -2.690 -3.100 -3.390 -3.320 -2.640 -1.210 0.930 3.460 -5.580 7.540 8.160 7.650 6.250 4.370 2.390 0.620 -0.910 -2.170 -3.170 -3.820 -4.060 -3.780 -3.070 -2.070 7.310 -0.250 0.160 0.190 -0.040 -0.360 -0.660 -0.870 -1.050 -1.260 -1.530 -1.830 -2.150 -2.490 -2.860 -3.300 -14.750 -4.020 -3.770 -2.770 -0.940 1.540 4.140 6.330 7.630 7.850 7.070 5.640 3.920 2.220 0.700 -0.610 18.460 -2.510 -2.940 -2.880 -2.390 -1.580 -0.750 -0.090 0.200 0.130 -0.200 -0.620 -0.990 -1.200 -1.230 -1.190 -0.930 -1.210 -1.450 -1.840 -2.350 -2.860 -3.240 -3.330 -3.010 -2.130 -0.640 1.330 3.460 5.370 6.610 6.920 7.000 4.950 3.190 1.360 -0.340 -1.750 -2.810 -3.440 -3.540 -3.110 -2.220 -1.090 0.010 0.810 1.190 1.140 2.120 0.240 -0.370 -0.900 -1.350 -1.690 -1.980 -2.260 -2.630 -3.080 -3.580 -3.920 -3.870 -3.200 -1.780 0.370 -24.990 5.380 7.290 8.280 8.220 7.280 5.790 4.080 2.410 0.860 -0.540 -1.750 -2.660 -3.140 -3.030 -2.450 9.420 -0.750 -0.180 0.030 -0.110 -0.480 -0.920 -1.330 -1.610 -1.760 -1.840 -1.910 -2.070 -2.370 -2.800 -3.270 -15.560 -3.600 -3.050 -1.880 -0.180 1.850 3.920 5.670 6.790 7.150 6.730 5.700 4.300 2.740 1.170 -0.300 19.850 -2.630 -3.230 -3.260 -2.730 -1.740 -0.610 0.350 0.830 0.750 0.220 -0.510 -1.180 -1.550 -1.570 -1.320 0.660 -0.890 -1.080 -1.540 -2.160 -2.740 -3.060 -3.010 -2.440 -1.350 0.220 2.120 4.040 5.650 6.590 6.670 13.560 4.420 2.600 0.760 -0.840 -2.080 -2.890 -3.240 -3.150 -2.670 -1.850 -0.850 0.120 0.900 1.330 1.350 8.460 0.360 -0.420 -1.160 -1.750 -2.060 -2.140 -2.090 -2.050 -2.150 -2.430 -2.860 -3.290 -3.570 -3.530 -2.920 -25.220 0.310 2.690 5.040 6.820 7.600 7.250 5.940 4.110 2.230 0.580 -0.720 -1.720 -2.500 -3.020 -3.190 3.310 -2.150 -1.110 -0.030 0.830 1.280 1.280 0.950 0.430 -0.080 -0.510 -0.800 -1.020 -1.220 -1.500 -1.820 -4.230 -2.230 -2.260 -2.240 -2.290 -2.390 -2.340 -1.850 -0.670 1.200 3.400 5.400 6.650 6.840 6.020 4.510 16.250 0.970 -0.560 -1.800 -2.690 -3.150 -3.140 -2.650 -1.870 -0.980 -0.280 0.110 0.160 -0.070 -0.400 -0.680 -1.600 -0.810 -0.730 -0.680 -0.700 -0.880 -1.110 -1.410 -1.780 -2.180 -2.630 -3.010 -3.060 -2.500 -1.160 0.870 -20.150 5.300 6.610 6.890 6.210 4.880 3.350 1.900 0.680 -0.340 -1.190 -1.890 -2.350 -2.490 -2.230 -1.650 2.720 0.050 0.720 0.980 0.780 0.150 -0.640 -1.320 -1.640 -1.610 -1.300 -1.010 -0.940 -1.160 -1.640 -2.250 -10.950 -3.320 -3.540 -3.330 -2.510 -0.990 1.130 3.440 5.480 6.710 6.920 6.200 4.900 3.380 1.920 0.520 15.160 -2.060 -3.030 -3.480 -3.200 -2.260 -0.960 0.240 1.010 1.220 1.000 0.610 0.200 -0.100 -0.340 -0.550 2.680 -1.010 -1.260 -1.590 -1.940 -2.270 -2.500 -2.540 -2.420 -2.150 -1.760 -1.140 -0.180 1.280 3.110 4.990 -2.310 6.860 6.190 4.570 2.460 0.400 -1.250 -2.380 -3.090 -3.450 -3.510 -3.200 -2.460 -1.360 -0.110 0.970 -0.000 1.890 1.720 1.330 0.870 0.370 -0.140 -0.680 -1.200 -1.640 -1.910 -2.050 -2.160 -2.370 -2.710 -3.110 -15.200 -3.290 -2.620 -1.300 0.480 2.430 4.180 5.410 5.950 5.750 4.930 3.660 2.110 0.460 -1.090 -2.390 6.170 -3.710 -3.550 -2.900 -1.880 -0.710 0.410 1.290 1.750 1.740 1.310 0.620 -0.140 -0.740 -1.060 -1.130 -3.590 -1.040 -1.170 -1.490 -1.890 -2.270 -2.530 -2.520 -2.210 -1.440 -0.210 1.470 3.330 5.060 6.270 6.670 8.700 5.110 3.570 1.850 0.200 -1.280 -2.470 -3.250 -3.490 -3.180 -2.440 -1.500 -0.600 0.040 0.350 0.350 2.100 -0.170 -0.500 -0.800 -1.030 -1.190 -1.300 -1.410 -1.570 -1.830 -2.220 -2.640 -3.040 -3.200 -2.910 -2.040 -24.270 1.480 3.610 5.450 6.590 6.830 6.190 4.940 3.360 1.700 0.150 -1.210 -2.290 -2.960 -3.070 -2.590 2.250 -0.530 0.470 1.130 1.320 1.150 0.730 0.210 -0.290 -0.750 -1.120 -1.410 -1.600 -1.720 -1.890 -2.150 -6.790 -3.080 -3.490 -3.550 -3.030 -1.860 -0.080 1.990 4.020 5.580 6.420 6.480 5.840 4.720 3.280 1.740 18.350 -1.310 -2.520 -3.300 -3.480 -3.070 -2.220 -1.160 -0.150 0.590 1.000 1.030 0.780 0.320 -0.230 -0.730 2.820 -1.230 -1.220 -1.160 -1.230 -1.540 -2.110 -2.790 -3.360 -3.510 -3.010 -1.810 0.020 2.150 4.170 5.740 -1.510 6.540 5.780 4.480 2.850 1.100 -0.580 -2.030 -3.120 -3.730 -3.770 -3.260 -2.280 -1.050 0.180 1.120 2.290 1.480 0.980 0.270 -0.380 -0.820 -1.040 -1.140 -1.250 -1.470 -1.770 -2.110 -2.390 -2.610 -2.720 -2.650 -17.550 -1.280 0.220 2.130 4.050 5.540 6.250 6.070 5.160 3.830 2.370 0.950 -0.410 -1.640 -2.670 -3.330 6.260 -2.890 -1.870 -0.640 0.450 1.100 1.270 0.990 0.500 -0.030 -0.450 -0.740 -0.920 -1.010 -1.070 -1.120 -1.340 -1.310 -1.550 -1.930 -2.350 -2.650 -2.610 -2.010 -0.790 0.910 2.820 4.480 5.550 5.830 5.350 4.310 15.670 1.490 0.050 -1.240 -2.310 -3.020 -3.310 -3.070 -2.420 -1.470 -0.460 0.370 0.850 0.890 0.590 0.050 2.170 -0.930 -1.230 -1.420 -1.590 -1.800 -2.050 -2.310 -2.580 -2.800 -2.940 -2.850 -2.360 -1.300 0.340 2.370 -16.870 6.020 6.870 6.780 5.940 4.570 3.010 1.440 0.010 -1.280 -2.350 -3.130 -3.490 -3.350 -2.660 -1.570 -0.400 0.720 1.320 1.390 0.990 0.380 -0.170 -0.540 -0.720 -0.820 -1.010 -1.340 -1.830 -2.390 -2.940 -3.410 -14.480 -3.710 -3.210 -2.040 -0.220 2.010 4.240 5.940 6.770 6.610 5.640 4.240 2.740 1.420 0.330 -0.570 14.370 -1.960 -2.330 -2.340 -1.920 -1.200 -0.360 0.370 0.760 0.740 0.370 -0.190 -0.730 -1.150 -1.380 -1.460 0.070 -1.620 -1.800 -2.000 -2.220 -2.420 -2.570 -2.570 -2.290 -1.530 -0.200 1.570 3.470 5.080 6.060 6.240 8.980 4.680 3.380 1.900 0.370 -1.160 -2.460 -3.330 -3.580 -3.170 -2.230 -1.080 0.010 0.770 1.120 1.060 5.940 0.150 -0.360 -0.780 -1.070 -1.250 -1.360 -1.480 -1.580 -1.710 -1.870 -2.110 -2.400 -2.670 -2.750 -2.390 -19.190 -0.050 1.750 3.550 5.020 5.880 6.040 5.550 4.580 3.300 1.880 0.530 -0.680 -1.630 -2.240 -2.480 9.460 -1.880 -1.150 -0.360 0.350 0.790 0.910 0.670 0.240 -0.280 -0.760 -1.150 -1.450 -1.710 -1.950 -2.150 -2.660 -2.230 -2.130 -2.040 -2.040 -2.140 -2.220 -2.000 -1.210 0.210 2.140 4.130 5.680 6.390 6.180 5.260 15.250 2.540 1.200 -0.060 -1.230 -2.300 -3.050 -3.330 -3.060 -2.290 -1.250 -0.180 0.680 1.210 1.370 1.250 7.660 0.450 -0.060 -0.580 -1.060 -1.460 -1.700 -1.790 -1.730 -1.650 -1.640 -1.830 -2.200 -2.650 -2.930 -2.770 -17.950 -0.640 1.130 2.980 4.460 5.300 5.340 4.670 3.500 2.130 0.760 -0.420 -1.340 -1.960 -2.240 -2.190 1.730 -1.180 -0.450 0.220 0.700 0.880 0.720 0.340 -0.180 -0.670 -1.000 -1.140 -1.070 -0.890 -0.690 -0.580 -3.930 -0.910 -1.320 -1.780 -2.200 -2.490 -2.450 -1.940 -0.900 0.660 2.520 4.290 5.640 6.300 6.220 5.550 17.730 3.190 1.810 0.420 -0.890 -1.920 -2.490 -2.470 -1.860 -0.900 0.120 0.850 1.090 0.780 0.010 -0.970 12.580 -2.590 -2.870 -2.800 -2.620 -2.560 -2.870 -3.560 -4.520 -5.460 -6.130 -6.360 -6.100 -5.410 -4.320 -2.890 -49.540 1.080 3.410 5.600 7.350 8.290 8.250 7.280 5.630 3.740 2.000 0.720 -0.080 -0.480 -0.630 -0.680 1.320 -0.420 -0.010 0.560 1.170 1.590 1.690 1.420 0.900 0.320 -0.160 -0.450 -0.560 -0.590 -0.650 -0.840 4.160 -1.500 -1.900 -2.260 -2.560 -2.730 -2.580 -1.960 -0.750 0.960 2.860 4.550 5.620 5.900 5.400 4.330 20.540 1.590 0.300 -0.810 -1.700 -2.340 -2.680 -2.760 -2.590 -2.220 -1.690 -1.070 -0.410 0.150 0.460 0.470 5.420 -0.360 -0.920 -1.400 -1.700 -1.820 -1.780 -1.690 -1.590 -1.530 -1.590 -1.760 -2.010 -2.210 -2.090 -1.430 -18.570 1.720 3.720 5.440 6.430 6.510 5.700 4.250 2.500 0.810 -0.610 -1.590 -2.140 -2.300 -2.130 -1.720 6.870 -0.510 0.180 0.770 1.210 1.360 1.190 0.790 0.280 -0.170 -0.450 -0.560 -0.610 -0.640 -0.720 -0.790 7.380 -0.820 -0.840 -1.040 -1.370 -1.710 -1.780 -1.250 -0.060 1.750 3.810 5.650 6.870 7.170 6.510 4.990 38.150 0.620 -1.430 -2.910 -3.660 -3.650 -3.070 -2.200 -1.280 -0.470 0.140 0.530 0.700 0.660 0.380 -0.030 22.020 -0.760 -0.900 -0.960 -1.120 -1.670 -2.630 -3.920 -5.200 -6.120 -6.400 -5.930 -4.840 -3.390 -1.800 -0.300 -22.860 2.230 3.240 3.940 4.180 3.710 2.480 0.550 -1.680 -3.930 -6.130 -8.590 -11.810 -15.970 -20.590 -24.570 -122.310 -25.410 -21.020 -13.880 -4.780 5.450 16.250 26.870 36.110 42.230 43.540 39.320 30.580 19.920 10.590 5.010 92.090 4.870 6.130 5.180 1.400 -4.090 -9.230 -12.260 -12.610 -11.050 -8.980 -7.530 -7.060 -7.150 -7.010 -6.240 11.520 -3.620 -2.870 -2.890 -3.520 -4.180 -4.410 -3.810 -2.520 -0.890 0.540 1.340 1.360 0.760 -0.080 -0.820 -15.310 -1.230 -0.930 -0.460 0.170 0.890 1.620 2.280 2.770 3.110 3.380 3.650 3.860 3.710 2.900 1.210 10.450 -3.710 -5.690 -6.610 -6.310 -5.130 -3.540 -2.010 -0.700 0.390 1.410 2.340 3.010 3.240 2.910 2.090 -6.830 0.010 -0.730 -1.110 -1.170 -1.000 -0.710 -0.320 0.210 0.850 1.590 2.270 2.780 3.010 2.960 2.750 7.010 2.200 1.950 1.650 1.220 0.700 0.190 -0.180 