64
3221226645
2884632575
64	-64	1	1	1	1	1	1	1	1	1	1	1	1	1	1	1	1	2	2	3	2	3	2	2	2	4	5	5	6	6	5	5	4	5	86
4294967295
4294967295
86	8	9	10	9	8	7	6	8	7	9	11	14	15	14	7	-3	-16	-32	-44	-53	-57	-58	-57	-57	-56	-55	-54	-50	-46	-41	-36	-29	-21	-12	-1	12	24	35	45	52	55	57	57	56	54	51	46	42	35	30	25	18	15	10	7	5	2	-1	-2	-5	-5	-7	-7	149
4294967295
2826960896
149	-8	-7	-8	-8	-7	-8	-7	-7	-7	-7	-6	-6	-6	-5	-5	-5	-4	-5	-3	-4	-3	-3	-3	-2	-3	-1	-2	-2	-1	-1	-1	-1	-1	-1	-1	0
347623
4227850234
-1	1	1	-1	-1	-1	1	1	1	-1	-1	-1	-1	1	1	2	1	-1	-2	-4	-4	-4	-3	2	6	9	10	8	5	-3	-4	-4	-4	-3	-3	-2	-3	-1	-1	1	-3
4087586303
4268532735
-3	-1	-1	-1	1	1	1	-1	1	1	1	-1	-1	-1	1	3	4	4	4	3	2	1	-1	-2	-2	-2	-3	-1	-2	-1	1	1	1	1	1	1	-1	-2	-2	-2	-1	-2	-1	-2	-3	-3	-12
4076863455
3561226239
-12	-2	-2	-1	-1	-1	-1	-1	-1	-2	-1	-1	1	4	5	7	7	6	5	4	4	2	1	-1	-2	-2	-3	-2	-2	-1	1	1	-1	-1	-2	-3	-3	-2	-2	-1	-1	-1	-2	-2	-2	-2	-2	-2	-2	-2	-2	-26
4294965027
4294967288
-26	1	3	5	6	7	6	6	5	3	2	1	-1	-2	-2	-3	-3	-3	-1	-1	1	1	1	1	-1	-1	-2	-2	-2	-2	-2	-1	-2	-2	-2	-2	-2	-2	-2	-3	-3	-3	-2	-1	1	4	5	6	7	7	6	5	3	3	1	15
3616538623
4294704473
15	-1	-1	-1	-2	-1	-1	1	-1	-1	-1	-2	-2	-2	-2	-3	-3	-2	-3	-2	-1	-1	-2	-3	-3	-3	-4	-2	-1	1	4	5	8	7	8	8	6	4	3	1	-1	-1	-2	-1	-2	-1	-2	-1	-1	1	1	1	-1	8
4294967293
4285136894
8	-2	-2	-3	-3	-3	-2	-3	-2	-2	-2	-3	-3	-3	-4	-3	-3	-2	1	3	6	7	8	9	7	7	6	4	2	1	-2	-3	-3	-2	-2	-1	-1	-1	-1	-1	-1	-1	-1	-1	-2	-2	-3	-3	-3	-3	-2	-2	-3	-3	-3	-3	-3	-2	-31
4294960671
4294967294
-31	5	7	9	8	8	7	5	3	2	1	-1	-2	-2	-3	-4	-2	-2	-1	-1	1	-1	-2	-2	-3	-3	-3	-2	-3	-3	-4	-4	-4	-5	-3	-1	1	5	7	8	9	9	8	6	5	3	2	1	-1	-2	-3	-3	-3	-3	-2	-1	-1	10
3489658879
2145910783
10	1	-1	-2	-2	-3	-4	-3	-4	-3	-3	-4	-4	-5	-5	-5	-4	-2	4	6	9	10	10	9	9	7	6	4	2	-1	-2	-3	-4	-4	-3	-3	-2	-1	-1	-1	-1	-2	-2	-4	-3	-4	-4	-4	-3	-4	-5	-5	-6	-8	-8	-7	-5	-2	-67
4294443007
4294967295
-67	5	7	8	8	6	6	3	2	1	1	-1	1	3	5	7	9	10	11	11	10	9	9	7	5	3	1	-1	-4	-5	-6	-6	-6	-6	-6	-6	-6	-7	-7	-8	-8	-6	-5	-2	1	4	7	8	9	7	6	5	3	3	1	-1	-1	-3	-3	-3	-3	-2	-2	19
4278190079
4277928447
19	-1	-1	-1	-1	-1	-1	-1	-1	-1	-2	-2	-3	-2	-3	-2	-2	-2	-2	-2	-3	-3	-5	-4	-4	-3	-1	2	5	7	8	9	9	7	6	3	2	1	-1	-1	-2	-2	-1	-1	-1	-1	-1	-2	-2	-3	-3	-3	-2	-5
4294967295
2399141887
-5	-2	-3	-2	-3	-3	-4	-3	-5	-3	-3	-2	1	4	6	7	9	9	8	6	5	4	2	1	-1	-1	-1	-2	-1	-2	-1	-1	-1	1	1	1	-1	-1	-1	-2	-3	-2	-2	-2	-2	-2	-2	-2	-3	-4	-3	-2	-3	-2	-3	-3	-3	-4	-3	-1	-39
4294964935
4294963199
-39	3	6	8	9	9	8	7	5	3	1	1	-1	-2	-1	-1	-1	-1	-1	-1	-1	1	1	1	-1	-2	-2	-2	-2	-2	-2	-3	-2	-3	-2	-2	-2	-1	-2	-2	-3	-3	-3	-4	-2	-2	3	5	7	8	9	8	6	5	4	1	1	-1	19
4278845439
3757965285
19	-3	-2	-2	-2	-1	-1	-1	1	-1	-1	-1	-1	-2	-2	-2	-3	-3	-2	-2	-2	-2	-2	-3	-4	-3	-3	-2	3	4	6	7	8	7	6	4	3	2	1	-1	-1	-1	-1	-1	-2	-1	-2	-1	-1	-1	-1	1	-1	4
4294967295
3836739583
4	-2	-2	-2	-2	-2	-2	-2	-2	-2	-2	-4	-3	-4	-3	-1	1	3	6	7	8	7	6	5	4	2	1	1	-1	-2	-3	-3	-3	-2	-2	1	1	1	-1	-1	-1	-2	-2	-2	-1	-2	-2	-2	-1	-2	-2	-2	-3	-3	-4	-4	-3	-1	-34
4294963439
4294967263
-34	4	5	7	8	7	7	6	4	4	1	1	-1	-2	-1	-2	-2	-2	-1	-1	-1	-1	-1	-1	-1	-2	-1	-2	-2	-1	-1	-2	-1	-3	-2	-3	-3	-3	-2	-3	-2	-1	1	3	6	7	8	8	7	5	5	3	1	-1	-3	-3	-3	-3	9
3229614079
4290724767
9	-1	-1	-1	-1	-2	-2	-2	-2	-2	-2	-1	-2	-2	-2	-3	-2	-3	-4	-4	-4	-4	-2	1	3	7	8	9	8	8	6	5	4	2	-1	-1	-2	-2	-2	-2	-1	1	1	1	-1	-1	-2	-2	-2	2
4294967279
4052746239
2	-3	-3	-2	-3	-3	-3	-3	-3	-3	-4	-5	-3	-3	-1	1	4	7	8	10	9	8	7	5	3	3	1	-1	-2	-2	-3	-2	-3	-2	-1	1	1	-1	-2	-2	-2	-3	-3	-3	-3	-2	-2	-3	-2	-2	-1	-2	-2	-3	-3	-3	-3	-36
3220961367
4294950903
-36	3	5	8	8	9	9	7	6	4	2	1	-2	-1	-2	-3	-2	-1	-1	-1	-1	-1	-1	-1	-2	-2	-3	-3	-3	-3	-3	-4	-3	-3	-2	-2	-3	-3	-3	-3	-2	3	6	8	9	10	9	7	6	4	2	-1	-2	-3	17
4265869309
4290765247
17	-3	-3	-2	-2	-2	-1	1	-1	-1	-1	-1	-2	-1	-2	-2	-2	-3	-3	-3	-4	-5	-3	-3	3	5	8	9	9	8	7	5	3	2	-2	-3	-3	-4	-3	-3	-1	-1	1	-1	-1	-1	-1	-2	-2	-2	-3	-8
4293918463
1660944319
-8	-3	-3	-3	-4	-4	-4	-4	-5	-3	-2	3	6	8	9	10	9	9	7	5	3	1	-2	-2	-3	-3	-2	-1	-1	1	1	1	-1	-1	-1	-2	-3	-3	-3	-4	-4	-5	-4	-4	-5	-4	-5	-4	-4	-2	2	6	8	10	11	10	13
4194179071
4293918460
13	7	6	4	2	-2	-3	-2	-2	-2	-1	-1	-1	1	-1	-1	-2	-3	-2	-4	-3	-3	-3	-3	-3	-2	-2	-2	-2	-3	-3	-3	-3	-4	-4	-3	2	4	8	9	10	9	8	7	4	3	2	-1	-2	-2	-3	-2	-2	14
4194303999
4278104831
14	1	2	1	1	-1	-1	-2	-2	-3	-3	-3	-3	-4	-3	-3	-2	-2	-3	-2	-4	-3	-5	-4	-3	-1	1	4	6	8	9	9	8	7	5	3	2	-1	-2	-2	-3	-2	-2	-1	1	1	1	1	-1	-1	-2	-3	-3	-4	-3	-3	-8
4293918715
922746879
-8	-2	-1	-2	-2	-3	-4	-5	-5	-4	-2	4	7	9	10	10	9	7	4	3	1	-1	-1	-2	-2	-3	-1	-2	-1	-1	-1	1	1	1	-1	-1	-2	-3	-3	-3	-4	-3	-3	-2	-2	-2	-2	-3	-3	-4	-5	-5	-3	-2	2	4	8	9	-9
4286552415
4294967294
-9	9	8	7	4	4	2	1	-1	-1	-2	-3	-2	-2	-1	-1	1	1	-1	-1	-1	-2	-2	-4	-4	-4	-5	-3	-3	-3	-2	-2	-3	-4	-4	-4	-4	-2	-1	1	3	7	9	9	10	9	6	5	2	1	1	1	1	1	1	1	24
3758096383
4294967289
24	1	1	1	2	3	2	3	2	2	1	1	2	1	2	2	2	2	3	2	3	4	4	4	3	-3	-8	-16	-23	-29	-30	-28	-21	-12	-2	7	14	18	19	19	14	10	6	1	-1	-3	-3	-3	-3	-3	-2	-1	-2	-2	-5	-5	-6	-4	-3	-1	-2	-39
4294311935
4293918719
-39	-5	-7	-6	-6	-6	-4	-4	-3	-1	-2	-1	-1	1	2	3	6	7	9	9	9	8	6	6	3	2	2	1	3	3	6	10	13	17	20	23	23	21	18	11	5	-6	-11	-14	-16	-16	-15	-12	-10	-9	-8	-9	-10	-11	-11	-11	-8	-4	-2	3	4	-8
4227855358
4261404671
-8	6	5	4	2	-1	-3	-4	-5	-5	-4	-4	-3	-3	-2	-2	-2	-1	-1	1	2	2	2	3	2	2	1	1	-2	-2	-3	-4	-3	-2	3	5	7	8	9	8	7	5	3	3	1	-1	-1	-3	-3	-3	-3	-3	-2	-2	-1	-1	-1	-2	1
4294901727
3925868543
1	-1	-2	-2	-2	-3	-4	-4	-4	-5	-6	-6	-6	-4	-2	4	6	8	9	8	8	7	6	5	2	-3	-4	-5	-6	-4	-4	-1	-1	1	-2	-2	-4	-3	-4	-2	-2	-1	-1	-2	-2	-4	-3	-3	-2	1	3	5	8	8	10	9	9	8	5	19
3757563887
4294960127
19	2	-1	-2	-2	-2	-3	-3	-4	-3	-2	1	1	2	2	1	-1	-1	-2	-3	-3	-3	-3	-2	3	4	7	8	9	9	8	7	6	4	2	1	-2	-3	-5	-6	-6	-6	-4	-4	-2	-1	-1	1	1	1	2	1	1	-1	-3	-3	-5	8
4294901759
4294967295
8	-3	-1	2	4	7	7	9	8	7	7	5	4	3	2	-1	-3	-5	-5	-6	-5	-5	-5	-4	-5	-4	-5	-4	-3	-3	-2	-2	-2	-3	-4	-5	-5	-6	-5	-5	-2	-1	3	5	8	9	10	10	8	6	3	2	-1	-3	-5	-7	-7	-7	-6	-5	-4	-3	-2	-24
4294442999
3758096382
-24	-1	-1	-1	-2	-3	-3	-5	-5	-4	-4	-1	2	3	6	7	8	9	9	8	6	4	3	1	1	-1	-1	-1	1	2	2	2	-2	-4	-6	-8	-7	-6	-3	-2	-1	-1	-3	-3	-6	-6	-6	-5	-2	1	4	8	11	12	14	12	11	8	5	1	31
4026531811
4227792895
31	-2	-1	1	3	4	3	1	-1	-5	-7	-11	-12	-12	-11	-9	-6	-3	-1	3	4	5	6	5	3	2	-1	-1	-2	-2	-3	-2	-1	2	2	4	3	3	3	1	2	1	-1	-3	-4	-6	-7	-7	-6	-4	-2	1	4	7	7	9	7	6	4
4292870143
4294966527
4	2	-1	-3	-4	-4	-4	-4	-2	-1	1	2	2	3	3	3	3	2	1	-1	-4	-4	-6	-5	-3	1	5	8	10	10	9	7	4	3	-1	-2	-4	-6	-5	-6	-4	-4	-2	-1	-1	-1	-1	-2	-2	-1	-2	-1	-1	-1	-2	-1	-1	1	3	6	7	10
4227850237
4294937343
10	7	7	4	3	-1	-3	-5	-5	-6	-5	-5	-3	-3	-3	-1	-1	1	1	1	1	-1	-2	-3	-4	-5	-4	-2	3	6	9	9	9	8	6	3	2	-1	-3	-4	-6	-5	-4	-4	-2	-1	1	1	1	-1	-1	-3	-3	-5	-4	-2	-19
4294953979
3221221375
-19	2	5	7	8	8	7	4	3	-1	-3	-4	-6	-6	-6	-4	-3	-2	1	1	1	1	1	1	1	1	-1	-2	-1	1	4	5	8	10	10	10	8	5	3	1	-3	-4	-5	-5	-4	-2	3	4	5	5	5	5	5	5	4	2	2	1	81
2684354559
4294967295
81	3	5	8	12	12	11	8	2	-4	-11	-17	-24	-29	-32	-34	-34	-32	-28	-24	-17	-14	-9	-7	-4	-3	-1	1	2	2	2	1	-2	-2	-2	2	8	15	21	24	22	19	12	4	-3	-8	-12	-13	-14	-13	-14	-17	-21	-24	-26	-24	-18	-9	4	18	30	39	-134
4294967295
4294967295
-134	46	46	49	52	57	60	58	52	40	28	17	10	7	6	6	7	4	2	-2	-10	-19	-30	-43	-52	-59	-59	-55	-47	-39	-33	-30	-30	-32	-34	-34	-33	-30	-24	-20	-17	-13	-13	-10	-9	-3	6	17	32	47	58	64	64	59	50	42	33	29	26	23	21	16	9	1	223
4294967295
4294967295
223	-15	-21	-25	-26	-26	-22	-19	-16	-14	-13	-12	-12	-10	-8	-4	1	6	12	16	19	17	13	5	-4	-11	-18	-19	-21	-19	-18	-16	-17	-17	-19	-23	-29	-38	-44	-49	-49	-40	-24	-4	17	37	49	56	58	57	57	59	62	65	65	59	46	27	4	-16	-32	-39	-40	-35	118
4294967279
4294967295
118	-22	-16	-12	-8	-6	-5	-6	-10	-12	-14	-12	-6	4	13	21	26	26	23	20	15	12	10	10	8	7	3	-3	-6	-6	-8	-7	-8	-10	-13	-15	-17	-18	-18	-18	-16	-14	-14	-13	-14	-16	-19	-21	-20	-16	-7	3	14	23	28	29	27	23	19	16	13	9	5	79
4294836223
4294967295
79	-5	-13	-18	-22	-27	-27	-29	-27	-26	-24	-19	-14	-8	7	12	16	18	15	12	6	-1	-7	-12	-16	-20	-23	-25	-25	-24	-23	-21	-22	-22	-24	-26	-26	-23	-15	-3	12	29	44	55	61	63	61	58	57	56	56	56	56	53	47	37	25	11	-4	-14	-23	-29	-31	251
4294443007
4294967295
251	-33	-30	-28	-22	-18	-14	-9	-7	-5	-3	-1	1	2	2	-1	-3	-7	-11	-13	-13	-12	-9	-6	-2	-1	2	1	3	2	3	3	1	-1	-2	-4	-5	-4	-4	-4	-2	-2	-1	1	3	4	4	3	2	-1	-4	-5	-6	-7	-7	-7	-4	-1	3	7	9	11	10	18
4294967037
4294967295
18	8	8	7	5	4	1	-2	-4	-4	-3	-1	1	3	5	7	8	11	12	12	12	9	5	-6	-10	-13	-13	-11	-7	6	15	20	26	28	25	18	8	-4	-16	-28	-38	-44	-50	-53	-53	-50	-47	-40	-36	-30	-27	-25	-22	-22	-20	-19	-19	-17	-13	-6	3	16	-424
4294967295
4292870140
-424	37	44	47	49	49	50	51	52	55	54	53	46	37	25	13	2	-7	-12	-13	-15	-13	-12	-10	-8	-6	-5	-6	-7	-9	-11	-11	-10	-9	-8	-8	-9	-10	-12	-11	-9	-5	6	11	14	14	13	10	6	3	-2	-4	-7	-8	-10	-9	-8	-7	-5	-3	-1	18
3758030847
3850371071
18	-1	-1	-1	-2	-2	-4	-5	-6	-7	-8	-8	-5	-3	5	9	13	15	16	13	11	6	3	-1	-5	-6	-8	-9	-7	-5	-4	-1	-1	-1	-1	-1	-2	-2	-3	-5	-5	-6	-7	-6	-4	-1	3	8	11	13	14	12	11	9	6	2	-1	-4	42
4269801215
3219365887
42	-7	-8	-7	-4	-3	-2	-1	-1	-1	-1	-2	-2	-3	-3	-5	-6	-7	-7	-6	-4	5	8	12	14	13	13	10	7	3	-4	-6	-8	-8	-6	-5	-3	-1	1	-1	-2	-1	-1	-2	-4	-6	-7	-9	-7	-4	-1	3	8	10	13	9
4294883327
4290772607
9	12	11	8	5	2	-1	-4	-6	-8	-7	-6	-5	-3	-2	1	1	1	-1	-1	-1	-2	-4	-5	-6	-6	-6	-4	-1	2	6	10	11	12	11	9	6	2	-4	-6	-7	-8	-8	-6	-4	-2	1	1	2	1	2	-1	-1	-2	-4	-4	-6	-5	-27
4026268623
4294934522
-27	-5	-3	3	8	10	12	13	11	9	7	2	-4	-7	-7	-8	-6	-5	-2	1	2	1	2	-1	-1	-3	-4	-5	-6	-7	-7	-6	-4	-2	2	5	9	11	11	11	8	6	4	-1	-4	-5	-6	-6	-5	-4	-1	-1	1	1	1	1	-1
4290764795
1073741817
-1	-1	-1	-3	-3	-5	-4	-5	-2	3	7	9	9	10	8	6	3	-2	-5	-5	-6	-5	-5	-3	-2	-1	1	1	1	-1	-1	-2	-2	-3	-5	-5	-6	-4	-2	2	6	8	11	10	10	7	4	2	-2	-3	-6	-6	-6	-6	-3	-3	2	-3
4294967295
1056964479
-3	3	2	1	1	-1	-2	-2	-4	-5	-6	-5	-4	-2	2	4	8	9	8	8	6	3	2	-1	-3	-4	-6	-6	-6	-4	-3	-2	1	2	1	2	1	-1	-2	-3	-4	-5	-4	-3	-1	3	5	8	10	9	7	5	1	-3	-3	-4	-4	-4	-2	-1	-2
2818572223
3170885631
-2	1	-1	-1	-1	-2	-3	-3	-4	-5	-5	-3	-2	2	4	8	10	10	10	8	5	2	-2	-5	-6	-6	-5	-4	-2	1	2	2	1	-1	-2	-2	-3	-4	-6	-7	-6	-6	-2	4	6	9	9	10	9	7	5	2	-1	-3	-4	-4	11
3741319167
4294443007
11	-2	1	2	2	1	-1	-1	-2	-1	-2	-2	-2	-4	-4	-5	-5	-5	-3	-2	2	4	7	8	9	7	6	3	2	-1	-2	-3	-4	-4	-3	-3	-1	1	1	1	1	1	-1	-2	-3	-2	-3	-2	-2	-3	-3	-4	-4	-5	-3	-1	2	5	7	9	9	11
4294942719
4294963199
11	7	5	2	1	-2	-3	-4	-4	-5	-3	-2	-1	1	1	1	1	-1	-1	-1	-2	-2	-3	-3	-3	-3	-4	-4	-3	-3	-1	2	5	8	9	9	9	7	5	3	-1	-2	-5	-5	-6	-5	-5	-3	-1	1	1	2	1	1	-1	-1	-2	-2	-1	-1	-2	-10
4294967292
4294967039
-10	-2	-3	-4	-4	-4	-3	-1	1	3	6	8	9	8	7	5	4	1	-1	-2	-4	-4	-5	-3	-3	-1	-1	1	1	1	-1	-1	-1	-1	-1	-1	-2	-2	-3	-3	-4	-3	-3	-1	1	4	6	8	9	8	6	4	2	-1	-3	-4	-4	-4	-4	-3	-1	-4
4227856381
4293918687
-4	1	2	1	1	-1	-2	-1	-2	-1	-1	-2	-3	-3	-3	-3	-3	-3	-2	2	4	7	9	9	8	6	4	2	-1	-3	-3	-4	-4	-3	-1	-1	1	1	1	1	-1	-2	-2	-3	-3	-2	-3	-2	-2	-3	-3	-3	-3	-3	2	5	7	8	9	10
4294823935
3220172735
10	7	5	3	1	-2	-3	-5	-5	-4	-4	-3	-1	-1	1	1	1	-1	-1	-1	-1	-2	-1	-2	-2	-4	-4	-5	-4	-3	2	5	7	9	8	7	5	4	1	-2	-3	-3	-3	-3	-2	-1	1	2	2	1	1	-2	-2	-2	-3	-3	-3	-11
4294967163
4293918719
-11	-4	-5	-6	-4	-4	-2	1	4	6	8	9	8	8	6	3	2	-1	-2	-4	-5	-4	-4	-2	1	1	1	1	-1	-1	-1	-2	-2	-2	-2	-4	-4	-5	-5	-4	-2	3	6	7	9	9	8	7	5	3	1	-1	-3	-4	-4	-4	-4	-2	-1	-1	1	1
3221159935
2466250743
1	-1	-1	-2	-1	-2	-2	-3	-3	-4	-5	-4	-4	-2	4	7	8	10	10	9	6	4	2	-1	-2	-5	-5	-5	-4	-3	-1	1	-1	-1	-1	-2	-2	-3	-3	-4	-4	-4	-2	-1	2	4	6	7	9	8	6	5	3	-1	-4	-4	11
4282383871
2136899583
11	-4	-2	-1	1	2	1	2	-1	-1	-1	-1	-1	-3	-4	-4	-6	-5	-4	-3	3	5	7	9	7	7	5	3	1	-2	-3	-5	-4	-4	-2	-2	1	1	1	1	1	-2	-2	-3	-5	-4	-5	-4	-2	1	2	6	7	7	7	6	18
3758071807
4294962047
18	2	-2	-3	-4	-5	-4	-3	-1	1	2	3	3	2	2	1	-2	-2	-4	-5	-5	-5	-3	-1	1	3	6	7	8	8	8	7	6	5	2	-1	-2	-5	-6	-7	-5	-3	-1	2	3	3	3	1	-1	-1	1	-2	-4	-8	-10	-11	-11	-6	-27
4278189823
4294959103
-27	3	7	8	9	6	4	-2	-6	-8	-10	-10	-10	-9	-5	-2	1	4	5	4	3	2	-1	-3	-3	-4	-6	-5	-7	-6	-7	-7	-5	-2	2	6	11	13	13	11	9	5	3	1	-1	-2	-2	-1	1	4	6	7	8	7	8	7	8	9	10	11	12	91
4294770175
4294967295
91	14	12	9	4	-2	-6	-9	-10	-10	-6	-4	-2	-1	1	2	3	5	4	4	-2	-5	-6	-5	-1	6	13	20	22	21	15	3	-11	-24	-35	-42	-43	-40	-36	-31	-26	-23	-21	-20	-19	-20	-19	-18	-16	-13	-6	1	9	15	19	22	23	23	25	25	26	-70
4294967279
3755997695
-70	23	19	15	12	10	9	8	10	12	13	15	16	15	13	8	2	-4	-8	-10	-11	-9	-7	-5	-3	-3	-1	1	4	4	4	4	2	-2	-5	-6	-7	-6	-5	-2	4	3	3	-1	-4	-7	-8	-7	-4	-2	-1	-1	-2	-1	1	4	6	7	7	55
4294967231
4294885375
55	-1	-5	-11	-16	-22	-28	-33	-36	-36	-31	-22	-13	-3	6	11	14	16	15	11	6	-1	-5	-8	-6	6	10	11	9	3	-2	-8	-10	-13	-12	-10	-7	-1	5	11	17	19	19	15	10	4	-1	4	8	14	22	30	39	45	50	50	45	36	26	15	7	323
4294967295
4290772991
323	-5	-8	-12	-12	-10	-7	-1	2	3	-3	-10	-21	-30	-36	-40	-43	-45	-48	-49	-49	-44	-37	-25	-16	-7	-3	-2	-2	-4	-5	-6	-7	-6	-4	-1	3	6	6	6	3	-3	-6	-7	-6	-3	3	12	22	32	42	50	54	57	57	54	50	43	36	30	23	18	12	329
4294959103
4294967295
329	-2	-13	-20	-27	-28	-27	-21	-18	-17	-21	-28	-37	-45	-47	-42	-32	-15	13	18	19	18	18	23	31	40	42	37	24	6	-12	-23	-30	-30	-29	-28	-30	-32	-35	-35	-30	-24	-13	-4	5	11	16	17	19	17	13	7	-2	-11	-19	-24	-26	-26	-22	-19	-12	-4	6	-216
4294967295
4294967295
-216	24	28	30	31	32	37	41	48	51	51	46	38	26	16	6	-4	-11	-18	-23	-27	-28	-28	-27	-26	-29	-34	-41	-49	-55	-55	-48	-33	-11	12	34	50	60	65	68	65	59	48	30	9	-12	-28	-36	-37	-33	-29	-28	-30	-36	-41	-43	-39	-30	-19	-5	8	17	24	29	-95
4294967295
4294835967
-95	31	28	25	18	14	11	15	22	32	41	44	42	33	20	7	-7	-20	-29	-36	-40	-39	-35	-25	-14	-4	5	11	14	12	7	-1	-12	-22	-30	-35	-32	-25	-13	1	12	21	23	19	13	6	-3	-3	1	3	5	6	5	3	-3	-8	-13	-17	-21	-21	-19	-16	-100
4294967295
4294967295
-100	-9	-7	-7	-8	-8	-5	-2	5	12	17	20	19	15	13	11	16	25	35	45	51	53	51	43	31	19	3	-9	-19	-24	-25	-21	-17	-15	-16	-21	-28	-35	-41	-42	-40	-36	-30	-24	-21	-19	-19	-20	-22	-21	-20	-16	-11	-4	4	10	14	14	11	5	-2	-7	-8	-2	-233
4294967295
4294967295
-233	16	22	23	14	-1	-21	-39	-53	-56	-50	-34	-12	11	31	44	51	52	49	44	39	35	33	32	35	38	36	30	17	-1	-19	-28	-30	-20	-5	10	24	30	31	26	19	9	-4	-16	-27	-33	-31	-21	-5	9	17	14	3	-13	-25	-31	-25	-12	2	13	16	12	2	-8	22
4261412863
4294967295
22	-18	-15	-10	-6	-2	2	6	14	25	34	39	37	28	14	3	-3	2	10	20	25	25	16	6	-8	-20	-31	-40	-47	-46	-41	-28	-12	6	18	26	27	27	26	26	27	23	15	1	-16	-33	-45	-50	-49	-43	-33	-23	-14	-10	-10	-16	-25	-36	-44	-46	-41	-32	-20	-373
4294967295
4294967295
-373	-1	5	11	13	14	13	10	6	5	7	10	16	19	23	24	27	30	34	39	41	41	39	36	33	33	33	37	39	41	39	35	26	16	4	-8	-20	-30	-35	-37	-35	-34	-31	-31	-29	-28	-24	-19	-13	-9	-7	-7	-9	-15	-22	-29	-31	-28	-19	-4	9	22	29	33	-1
4286578687
4294967295
-1	33	28	21	9	-2	-8	-8	12	23	26	20	7	-11	-27	-40	-45	-45	-42	-35	-26	-15	-4	6	13	17	15	10	4	-1	-4	-7	-8	-12	-14	-18	-20	-19	-18	-15	-12	-11	-12	-12	-13	-13	-10	-3	8	21	33	41	43	37	27	16	9	7	12	18	23	26	24	80
4294967295
4294967295
80	20	21	22	24	23	20	12	6	-1	-6	-9	-13	-16	-18	-18	-15	-10	-5	-1	1	-2	-7	-15	-21	-29	-33	-37	-40	-42	-43	-45	-44	-39	-27	-10	9	29	41	47	42	33	23	14	9	6	4	3	2	2	4	8	12	15	16	14	12	11	11	12	13	12	10	6	104
4294959096
4294836127
104	-4	-8	-10	-11	-11	-10	-8	-4	1	5	9	13	13	13	11	9	5	-3	-6	-9	-10	-9	-9	-6	-5	-3	-1	-1	-2	-3	-4	-5	-6	-8	-9	-9	-11	-11	-9	-8	-4	5	9	12	14	13	10	8	4	3	2	-1	-3	-4	-5	-4	25
4294967295
4294967167
25	-5	-6	-7	-8	-8	-8	-7	-7	-6	-5	-5	-3	-1	1	3	4	5	5	5	7	10	15	19	24	26	26	21	12	2	-10	-20	-26	-29	-26	-22	-15	-10	-5	-2	-1	-1	-2	-3	-4	-6	-5	-3	-2	2	4	5	5	5	3	2	-1	-1	1	5	7	11	13	17
4294966783
3220963327
17	13	12	9	6	4	1	-3	-4	-6	-7	-7	-5	-5	-4	-3	-4	-3	-2	-2	-1	-1	-1	-1	-1	-3	-3	-6	-6	-8	-7	-4	4	9	12	12	11	9	6	4	3	1	1	-1	-1	-1	1	3	5	7	8	7	4	2	-2	-4	-4	-5	-5	-4	-3	41
4294967295
3758096383
41	-4	-8	-13	-19	-24	-29	-29	-28	-26	-22	-18	-13	-9	-3	3	10	16	20	22	20	19	15	13	13	11	12	11	11	9	8	5	4	2	-2	-4	-5	-6	-8	-7	-7	-5	-3	1	4	8	10	12	13	14	14	13	10	6	2	-3	-8	-10	-11	-12	-10	-10	-10	-2
4275044351
4245159415
-2	-8	-6	-5	-3	-2	1	2	1	-1	-2	-2	-2	-1	1	4	8	9	10	9	8	6	3	2	-1	-2	-4	-5	-6	-5	-5	-4	-3	-2	-2	-1	-1	-2	-4	-4	-6	-6	-6	-6	-3	3	5	6	6	4	-4	-7	-9	-52
3757045743
4278190071
-52	-6	6	11	16	18	16	12	6	2	-1	2	6	10	13	12	9	5	-3	-5	-6	-5	-5	-1	3	4	5	4	2	-1	-4	-5	-5	-4	-2	1	2	3	2	1	1	-1	-2	-3	-6	-7	-9	-11	-11	-10	-10	-8	-6	-4	-3	2	3	5	-7
4294967295
4294967295
-7	9	11	13	13	12	8	1	-6	-15	-22	-26	-26	-22	-17	-11	-6	-5	-5	-8	-9	-10	-9	-6	-4	-1	1	3	4	7	10	13	16	21	24	27	31	31	30	26	19	11	3	-6	-13	-16	-18	-17	-13	-9	-5	-3	-2	-2	-2	-2	-2	-2	-3	-2	-4	-4	-5	-6	-14
4261379979
4294967292
-14	-6	-6	-5	-3	-2	3	6	8	9	10	9	7	4	2	-2	-2	-4	-3	-2	-2	-1	-1	-1	-1	-1	-1	-1	-1	-2	-3	-4	-4	-4	-4	-3	-1	1	4	7	8	8	7	5	3	1	-1	-2	-4	-5	-5	-5	-5	-3	-3	-1	-15
3892051967
4272947199
-15	1	1	-1	-3	-2	-3	-2	-1	-1	1	2	3	4	6	7	7	5	3	1	-1	-3	-3	-4	-3	-4	-3	-3	-2	-2	-2	-3	-2	-2	-1	-1	1	1	-1	-2	-3	-3	-4	-3	-2	1	4	6	10	10	11	10	9	6	5	2	1	-1	32
2409627645
4294443007
32	1	1	1	1	1	-1	-2	-2	-2	-3	-2	-4	-3	-3	-3	-2	-1	1	2	3	3	4	2	2	1	-1	-1	-2	-2	-3	-4	-3	-3	-2	-1	-1	-1	-2	-2	-2	-3	-3	-4	-3	-4	-3	-4	-4	-4	-4	-4	-5	-3	-3	1	3	-43
4290765823
4026465263
-43	9	11	12	10	8	6	3	1	-3	-3	-5	-5	-5	-4	-3	-1	-1	-1	-2	-2	-3	-4	-4	-5	-5	-5	-5	-5	-4	-2	4	7	11	12	13	13	11	8	7	4	1	-3	-4	-4	-4	-2	1	2	1	1	1	-1	-2	-2	-2	10
4294959070
1610612735
10	-4	-4	-5	-6	-6	-6	-4	-2	2	5	7	9	10	8	8	5	4	-1	-3	-5	-5	-5	-4	-2	1	1	1	1	-1	-1	-1	-1	-3	-4	-5	-6	-6	-5	-3	-2	2	5	8	9	10	8	8	6	3	1	-1	-3	-5	-5	-5	-5	-3	-2	3
4206886911
4286578559
3	1	2	1	1	-1	-1	-1	-3	-4	-6	-6	-7	-6	-4	-2	1	5	7	10	11	10	9	6	4	1	-2	-3	-4	-5	-5	-3	-2	-1	1	1	1	-1	-2	-2	-1	-1	-1	-2	-2	-3	-5	-5	-6	-5	-4	-2	3	6	8	9	9	9	6	22
4292870143
4294967295
22	1	-1	-3	-5	-4	-5	-3	-2	-1	-1	-1	-1	-2	-1	-1	-1	-2	-2	-4	-4	-4	-4	-2	-1	1	2	3	4	4	6	6	8	10	14	18	21	21	18	11	2	-8	-14	-17	-18	-16	-14	-13	-12	-11	-10	-9	-8	-8	-9	-9	-11	-10	-9	-7	-5	-4	-3	-109
4294836223
4294967295
-109	3	10	19	27	36	42	44	45	43	38	32	23	12	-9	-15	-18	-19	-18	-15	-14	-12	-12	-11	-11	-10	-10	-10	-10	-10	-11	-12	-16	-20	-22	-26	-26	-24	-20	-14	-9	-2	3	9	12	15	15	14	13	11	11	11	13	14	15	15	16	16	15	12	9	1	-6	77
4294967295
4280286207
77	-24	-29	-33	-33	-32	-31	-29	-28	-24	-19	-14	-8	-1	4	9	14	19	23	27	27	25	21	16	10	7	4	4	4	4	4	3	3	2	2	2	2	2	1	1	-1	-2	-2	-3	-4	-4	-4	-4	-3	-1	2	3	4	5	4	4	3	3	1	1	13
4287127423
4294674431
13	-2	-2	-3	-3	-2	-3	-1	-2	1	-1	-1	-1	-1	-1	-1	-1	1	1	2	3	4	4	3	2	3	1	2	1	-1	-1	-3	-2	-3	-1	-1	1	1	1	-2	-1	-2	-2	-1	-2	-2	-2	-2	-3	-2	-15
3220965375
4261396071
-15	1	3	3	5	6	5	5	4	3	3	1	1	-1	-1	-2	-3	-2	-3	-2	-2	-2	-2	-2	-4	-4	-4	-4	-2	-1	2	2	4	4	5	5	4	4	2	1	-2	-2	-2	-2	-1	1	1	-2	-2	-2	2
4160745727
4294836223
2	-1	-1	-1	-1	-1	-2	-3	-3	-1	1	3	7	9	9	8	7	3	2	-2	-3	-4	-7	-7	-6	-5	-3	-2	-3	-4	-6	-11	-14	-18	-18	-16	-10	-3	2	5	4	-4	-6	-4	-2	4	10	15	17	15	11	2	-6	-13	-16	-12	-6	2	-78
4294967295
4294967295
-78	14	17	18	17	13	7	-3	-10	-14	-9	3	18	29	34	28	13	-5	-22	-37	-45	-46	-41	-29	-11	9	27	36	35	21	3	-19	-37	-46	-49	-44	-36	-26	-19	-15	-13	-12	-10	-5	2	7	12	14	15	15	17	20	24	26	27	26	25	23	22	23	24	25	26	24	81
4294967295
4294967295
81	21	20	19	20	22	25	28	32	35	36	35	30	22	11	-2	-13	-22	-28	-32	-32	-32	-30	-28	-25	-20	-14	-5	3	11	15	14	11	6	2	1	-2	-4	-10	-19	-28	-37	-42	-42	-38	-30	-23	-16	-13	-12	-11	-12	-9	-7	-4	-2	-2	-2	-2	-3	-3	-2	-3	-1	-162
4294967295
4294967295
-162	2	7	12	18	22	27	30	31	30	28	24	19	14	8	5	1	-1	-3	-3	-5	-4	-3	-3	-2	-1	-2	-3	-4	-5	-5	-6	-6	-5	-7	-7	-9	-10	-11	-11	-9	-5	-1	4	7	9	9	8	7	5	2	-1	-3	-5	-6	-6	-5	-2	-1	1	2	2	1	1	14
3355181054
268419055
14	1	-2	-3	-5	-5	-6	-6	-5	-3	4	6	8	10	9	8	6	5	3	2	-1	-1	-3	-4	-3	-2	-2	-1	-1	-1	-2	-2	-2	-4	-4	-5	-5	-5	-4	-2	2	6	9	9	10	9	7	5	3	-1	-3	-4	-3	33
4294966783
3758030847
33	-3	-1	-1	-2	-4	-5	-7	-7	-8	-6	-6	-5	-5	-4	-5	-4	-4	-5	-3	-4	-2	3	6	9	11	12	12	10	7	6	3	2	-1	-2	-2	-3	-1	-1	-1	1	1	1	1	1	-1	-1	-2	-3	-2	-3	-3	-3	-4	-4	-4	-5	-5	-4	-3	1	-26
4290760191
4278181835
-26	7	8	10	8	8	5	3	1	-1	-2	-2	-3	-2	-2	-2	-1	1	1	-1	-1	-2	-2	-3	-2	-2	-3	-3	-3	-3	-4	-3	-4	-4	-1	3	6	7	8	8	7	5	4	2	1	-2	-2	-2	-3	-2	-1	-1	1	1	2	13
3489628158
4294967295
13	1	-1	-2	-2	-2	-1	-2	-1	-1	-2	-2	-2	-2	3	5	7	10	11	10	8	4	1	-2	-4	-5	-4	-1	3	5	7	6	6	6	5	5	5	7	9	9	8	4	-4	-15	-25	-32	-35	-32	-25	-17	-12	-9	-8	-10	-13	-15	-21	-27	-34	-41	-298
4294967295
4294967295
-298	-44	-39	-30	-21	-9	4	17	32	46	60	68	71	71	65	57	49	39	31	23	16	9	3	-1	-4	-7	-9	-12	-15	-18	-20	-22	-22	-24	-23	-22	-22	-20	-18	-15	-12	-9	-8	-7	-9	-12	-13	-14	-11	-7	-1	3	8	9	9	10	9	11	12	15	18	22	27	32	62
4294967295
4294967263
62	33	30	23	16	8	2	-4	-8	-12	-14	-17	-18	-19	-19	-19	-17	-14	-9	-3	3	8	11	10	9	7	4	1	-1	-4	-6	-8	-8	-9	-8	-5	-5	-3	-2	-4	-4	-6	-8	-8	-7	-4	-2	1	5	7	8	9	9	8	6	5	2	1	-2	-3	-2	-1	1	9
4294950911
4294967295
9	5	5	4	3	2	1	1	2	3	3	4	2	2	-1	-2	-2	2	6	12	16	18	17	11	3	-7	-17	-24	-30	-33	-34	-34	-35	-34	-35	-34	-33	-31	-28	-23	-18	-10	-1	11	24	40	53	63	70	70	65	57	47	36	26	18	9	4	-1	-5	-10	-14	-19	187
4294967295
4294967295
187	-23	-23	-20	-18	-16	-15	-12	-9	-5	2	5	9	10	10	12	13	12	8	2	-8	-16	-21	-22	-17	-13	-7	-5	-6	-7	-10	-11	-11	-11	-12	-14	-16	-21	-26	-32	-36	-40	-41	-40	-35	-27	-17	-5	6	18	27	34	39	41	40	38	34	29	25	21	18	15	13	11	20
4225761279
4294934527
20	8	5	4	2	-2	-2	-2	-2	3	5	7	8	7	5	3	2	-1	-1	-1	-3	-2	-3	-3	-3	-2	-2	-1	-1	-1	-2	-2	-3	-2	-3	-3	-3	-3	-3	-4	-4	-5	-5	-5	-4	-3	2	6	9	10	11	10	8	7	5	2	-1	-3	-7	-10	-12	18
4289708031
4286119935
18	-11	-10	-8	-5	-4	-2	-1	-1	1	1	1	1	1	1	-1	-2	-1	-1	1	3	6	8	8	8	7	4	3	2	-1	-1	-3	-3	-4	-3	-3	-1	1	1	2	1	-1	-1	-1	-2	-2	-3	-3	-4	-4	-4	-4	-2	-1	1	4	5	-2
4294938623
4294966863
-2	8	7	6	5	2	1	-1	-2	-2	-4	-3	-3	-2	-1	-1	1	-2	-2	-2	-2	-2	-1	-1	-1	-1	-3	-3	-4	-4	-4	-3	-2	2	4	7	8	9	8	7	6	3	2	-1	-2	-3	-3	-3	-2	-2	-1	-1	1	-1	-1	-1	-2	4
4294964219
2415902703
4	-2	-2	-2	-2	-3	-3	-3	-4	-3	-2	1	2	6	6	7	7	6	4	3	-3	-3	-3	-4	-3	-2	-2	1	1	1	-1	-1	-2	-1	-1	-1	-3	-2	-3	-4	-3	-3	-2	2	4	6	7	7	6	5	4	1	-1	-3	-3	-4	3
4294967039
4292993023
3	-3	-2	-1	1	1	1	1	1	1	-1	-1	-1	-2	-2	-2	-2	-3	-2	-4	-3	-2	-2	2	5	6	7	7	6	5	3	1	1	-2	-3	-3	-4	-4	-3	-2	-1	1	-1	-1	-1	-2	-1	-2	-2	-3	-3	-3	-4	-2	-1	1	3	6	-11
4278085375
4294701463
-11	7	7	6	5	4	1	-1	-2	-3	-4	-3	-2	-1	1	1	-1	-1	-1	-2	-2	-3	-3	-3	-4	-4	-3	-3	-1	1	4	6	7	7	7	5	4	3	1	-1	-3	-4	-3	-3	-3	1	1	-1	-1	-2	-1	-3
4294963179
2147352447
-3	-2	-3	-2	-4	-4	-3	-2	-1	2	4	6	6	7	6	5	3	2	1	-2	-3	-3	-3	-2	-3	-1	1	1	1	-1	-1	-1	-1	-1	-1	-3	-2	-4	-3	-4	-3	-2	2	4	6	7	8	6	6	3	1	-1	-2	-4	-3	-3	-3	-1	3
2986342397
4192993279
3	1	1	-1	-1	-2	-1	-2	-1	-2	-3	-3	-3	-3	-3	-1	3	4	7	7	6	7	4	3	1	-3	-3	-4	-3	-3	-1	1	2	1	1	-1	-1	-1	-1	-2	-1	-3	-3	-3	-3	-2	-2	-1	1	2	4	4	5	5	11
4294575101
4286575615
11	3	2	-1	-2	-3	-4	-4	-5	-3	-3	-1	-1	1	-1	-1	-1	-2	-3	-3	-2	-2	2	4	6	7	7	7	6	3	3	-1	-2	-3	-3	-3	-3	-1	-1	1	1	1	-1	-1	-1	-1	-2	-1	-2	-2	-3	-4	-15
4294966615
4294967287
-15	-4	-2	-1	1	4	5	7	8	6	6	4	2	1	-1	-2	-3	-3	-4	-2	-2	-1	1	1	-1	-1	-2	-1	-1	-2	-2	-2	-3	-3	-3	-3	-3	-1	1	3	6	7	7	7	6	3	2	1	-1	-3	-3	-3	-4	-2	-2	-1	1	2	1	6
2684321759
3997171455
6	-1	-2	-1	-2	-2	-2	-3	-2	-3	-3	-3	-3	-1	2	4	6	7	7	6	4	3	2	-1	-1	-2	-4	-3	-3	-2	-1	1	1	2	-1	-2	-2	-2	-2	-2	-3	-2	-2	-3	-4	-3	-2	2	5	5	7	6	6	5	3	18
2682159103
4286578175
18	-2	-3	-3	-4	-2	-2	-1	1	1	1	1	-2	-1	-2	-1	-2	-2	-1	-2	-3	-3	-4	-3	-2	-1	2	4	6	7	8	6	5	3	1	-1	-2	-3	-4	-3	-2	-2	-1	1	1	2	1	1	-1	-1	-1	-2	-1	-2	-2	-3	-3	-12
4227858163
2146435071
-12	-3	-3	-3	-1	3	4	5	7	6	6	4	3	1	-1	-1	-3	-3	-3	-3	-2	-1	1	1	1	1	-1	-1	-1	-2	-2	-2	-3	-3	-4	-3	-3	-2	3	4	5	7	6	6	5	3	1	-1	-1	-2	-3	-3	-3	-2	-1	-1	1	1	3
3355443183
3483893567
3	1	-1	-1	-1	-1	-2	-2	-3	-3	-3	-3	-3	-1	1	3	5	6	6	6	5	4	3	1	-2	-3	-2	-3	-2	-1	2	1	2	1	1	1	-1	-1	-2	-2	-2	-2	-2	-2	-1	-1	-1	2	1	2	2	2	1	7
4292360951
4294854655
7	-2	-4	-4	-5	-5	-4	-3	-1	-1	1	1	1	1	1	1	-1	-1	-1	-1	2	3	6	6	7	6	5	3	2	1	-1	-1	-3	-2	-3	-2	-1	-1	1	-1	-1	-1	-1	-2	-2	-2	-2	-2	-2	-2	-11
3221217220
3758096381
-11	2	3	5	5	6	4	3	2	1	-1	-1	-3	-2	-3	-2	-1	1	1	1	2	2	1	2	-1	1	1	1	2	3	5	7	9	10	10	8	7	5	1	-2	-5	-5	-3	-2	1	1	-1	-8	-17	-24	-27	-26	-19	-11	8	-38
4294967283
4294967295
-38	18	18	13	2	-11	-23	-31	-34	-32	-25	-19	-13	-8	-4	2	9	14	19	19	17	16	13	11	9	8	6	3	1	3	6	9	12	12	12	10	9	5	4	2	2	4	6	8	7	5	1	-3	-8	-9	-11	-10	-10	-10	-9	-8	-7	-6	-6	-5	-6	-5	-41
4294963199
4294254479
-41	-4	-4	-3	-3	-1	-1	-1	-2	-3	-3	-4	-3	-3	-2	-2	-2	-2	-2	2	5	9	11	14	15	15	13	11	9	8	6	6	5	4	4	2	2	1	2	1	1	2	1	1	1	-2	-3	-3	-2	-2	-1	-1	-1	-1	-1	46
4286576959
4294967295
46	-2	-2	-2	-2	-2	-2	-1	-1	-1	-1	-3	-2	-4	-3	-3	-2	-1	-1	-1	1	1	1	3	4	6	7	7	7	7	7	8	8	8	7	6	5	5	3	1	-1	-6	-10	-14	-16	-17	-18	-18	-19	-20	-22	-22	-22	-20	-18	-16	-14	-11	-6	-177
4294967295
4294967295
-177	7	15	20	24	25	25	24	21	21	20	19	17	14	12	8	6	4	1	-2	-7	-13	-21	-25	-28	-26	-21	-14	-8	-1	2	3	-2	-7	-15	-23	-29	-32	-30	-24	-15	-3	9	19	27	30	31	32	31	33	32	32	30	26	21	15	11	7	5	5	5	6	7	5	185
4294963711
4294967295
185	-7	-17	-28	-36	-40	-38	-32	-21	-10	1	7	11	12	11	10	7	5	3	1	2	2	2	-2	-5	-8	-12	-12	-10	-7	-4	-2	-3	-7	-11	-14	-15	-13	-10	-6	-3	-2	-5	-9	-15	-22	-28	-28	-24	-12	2	19	30	37	35	29	20	15	12	12	15	-15
4294967295
4294967295
-15	18	19	17	17	14	13	9	7	4	3	2	2	4	5	6	5	4	3	4	3	5	7	10	11	9	6	-3	-11	-20	-28	-35	-40	-43	-44	-41	-30	-13	9	34	52	61	58	46	29	11	-3	-13	-19	-22	-23	-22	-20	-17	-13	-8	-5	-2	-1	-2	-3	-4	-3	-1	4
4294967295
4277987327
4	2	3	1	-1	-3	-4	-6	-8	-9	-12	-15	-17	-17	-16	-14	-9	-6	-3	1	3	6	6	7	6	4	3	3	5	6	9	10	12	11	11	9	7	4	1	-2	-3	-2	-1	-1	-1	1	1	1	-1	-1	-2	-2	-2	-1	-1	-1	-2	-3	-2	-32
4293918719
4160749567
-32	2	4	7	9	9	8	6	4	2	1	-1	-2	-3	-3	-3	-2	-2	-2	-1	-2	-1	-3	-3	-5	-6	-8	-9	-10	-11	-11	-11	-10	-8	-5	3	7	10	13	15	16	16	14	12	10	9	9	11	12	14	16	16	15	13	10	6	2	-2	-6	-7	-10	-10	102
4294705151
4227858431
102	-11	-10	-10	-10	-9	-9	-8	-7	-7	-5	-4	-1	1	2	1	1	-1	-2	-3	-3	-2	-3	-2	-3	-3	-3	-3	-4	-4	-4	-3	-2	-2	-1	-1	-2	-3	-7	-10	-13	-15	-17	-16	-16	-14	-12	-8	-1	8	19	28	32	32	27	21	14	11	8	7	8	8	64
4261412863
4294967295
64	6	7	5	4	2	-3	-6	-8	-10	-12	-12	-14	-14	-15	-17	-18	-17	-15	-12	-8	-5	-1	1	2	2	1	2	1	1	2	4	5	7	9	10	11	12	12	13	12	10	8	6	2	-1	-1	-3	-2	-1	-1	-1	-1	1	1	4	6	9	11	11	11	9	7	98
3758096383
4160684027
98	2	-2	-3	-3	-4	-3	-2	-3	-3	-5	-6	-7	-8	-7	-9	-8	-9	-9	-8	-8	-8	-8	-9	-10	-9	-9	-5	-2	1	4	6	5	4	2	-2	-3	-3	-5	-4	-4	-3	-2	-2	-1	1	2	4	6	6	7	8	8	7	7	5	4	1	-2	-2	-13
4294961727
4294950911
-13	3	5	8	9	10	9	8	7	5	3	1	-1	-2	-2	-3	-2	-2	-1	1	1	-1	-1	-2	-1	-2	-3	-3	-3	-4	-3	-2	1	3	5	8	8	9	8	8	6	5	3	2	-2	-4	-5	-7	-8	-9	-10	-10	-10	-11	-10	-8	-8	-7	-31
4294967274
939523583
-31	-6	-7	-8	-8	-9	-9	-8	-6	-3	2	6	11	13	15	14	12	11	8	5	4	1	-1	-1	-3	-2	-1	1	1	-1	-1	-1	-2	-2	-2	-2	-2	-1	1	2	4	5	6	6	5	4	3	1	-2	-4	-5	-5	-5	-5	-3	-2	-1	-7
4278190015
1174405095
-7	1	2	1	2	1	1	-1	-2	-3	-4	-3	-3	-2	1	3	5	6	7	6	5	5	3	2	-2	-2	-3	-3	-2	-1	1	-1	-1	-1	-2	-2	-3	-4	-5	-5	-4	-3	-2	2	3	6	6	7	7	5	4	3	-2	-3	-3	13
4278190076
4270587647
13	-2	-2	-1	-1	-1	-1	-1	-1	-2	-1	-2	-1	-3	-3	-4	-3	-3	-2	1	3	5	7	6	6	4	4	3	1	-2	-3	-3	-2	-2	-1	-1	-1	-1	-1	-2	-2	-3	-4	-4	-4	-3	-1	3	5	5	6	6	5	3	3	17
3205365759
4227358719
17	-1	-2	-2	-2	-2	-1	-1	-1	-1	-1	-1	-2	-2	-3	-3	-5	-4	-4	-3	-1	2	3	5	7	6	6	5	4	3	2	-2	-2	-2	-3	-1	-1	-1	-1	-1	-1	-1	-2	-3	-3	-3	-4	-4	-4	-2	-1	1	-20
4294907903
4227808517
-20	5	7	6	6	6	4	3	2	1	-1	-1	-2	-2	-2	-2	1	-1	-1	-1	-2	-2	-1	-2	-2	-1	-2	-3	-3	-4	-4	-3	-2	1	4	5	6	7	6	5	3	3	1	-2	-1	-2	-1	-1	-1	-1	9
4294934519
3468689403
9	-2	-2	-2	-2	-2	-2	-2	-1	-2	-3	-2	-3	-3	-2	-2	1	4	4	6	6	5	5	3	2	2	1	-1	-2	-1	-1	-1	1	1	1	-1	-1	-1	-2	-1	-2	-2	-2	-1	-2	-1	-2	-1	-2	-2	-3	-2	-3	-2	-2	1	2	-15
4290754495
4294442493
-15	4	5	6	4	4	3	1	1	-1	-1	-2	-1	-1	-1	1	1	1	-1	-1	-1	-1	-1	-1	-2	-1	-2	-2	-2	-1	-1	-1	-2	-1	-2	-2	-2	-3	-2	-1	2	3	4	6	5	5	4	2	2	-1	-1	-2	-2	-1	-1	1	2	5
3556769599
4291465203
5	1	1	-1	-1	-1	-1	-2	-2	-2	-2	-1	-1	-1	-1	-2	-1	-3	-2	-2	-1	2	4	4	5	5	5	3	2	1	-1	-2	-2	-2	-1	-1	-1	1	1	1	-1	-1	-2	-2	-3	-1	-2	-1	-1	-1	-13
4227661009
4294967295
-13	-2	-3	-3	-1	2	4	4	6	4	4	3	2	-1	-1	-2	-1	-2	-1	1	1	1	-1	-1	-1	-1	-2	-2	-2	-2	-2	-1	-1	-2	-1	-1	-2	-2	-1	1	2	3	5	5	5	4	4	3	1	1	-1	-1	-1	-2	-1	5
2151675887
4072837119
5	-1	-1	-1	-1	-1	-1	-1	-1	-1	-1	-1	-1	-1	-2	-2	-1	2	3	4	4	4	2	2	1	-1	-1	-1	1	1	-1	-1	-1	-1	-2	-1	-2	-1	-2	-2	-3	-4	-16
4294704252
4290760654
-16	-2	-1	1	2	4	4	4	3	3	2	1	1	-1	-1	-2	-2	-2	-2	-1	-1	1	1	1	1	1	-1	-2	-3	-2	-3	-3	-3	-2	-1	2	4	4	6	5	5	3	3	-2	-3	-2	-3	-2	-1	1	2	1	3
2885681020
2147483647
3	-1	-1	-1	-2	-2	-2	-3	-3	-1	-1	2	3	5	6	6	6	5	3	2	2	-1	-2	-1	-2	-1	1	2	2	2	2	2	3	1	2	2	1	2	1	2	2	3	4	6	7	8	9	10	9	8	5	2	-4	-9	-14	-17	-18	37
4294967295
3221159935
37	-15	-12	-8	-6	-4	-2	-2	-1	-1	-1	-3	-5	-6	-6	-8	-7	-7	-8	-8	-8	-7	-4	-1	3	5	6	6	6	6	6	5	3	-3	-7	-8	-9	-9	-8	-6	-4	-2	1	3	3	2	-2	-4	-5	-3	-2	-1	2	4	8	10	15	16	17	16	14	12	13
4260364287
2130702335
13	8	6	5	4	1	-2	-2	-3	-2	1	3	4	5	5	4	4	4	3	3	1	-1	-3	-6	-7	-8	-7	-6	-4	-2	3	5	5	5	4	2	-2	-3	-4	-4	-4	-4	-3	-3	-2	-2	-1	-1	-1	-1	-2	-3	-3	-2	-2	-2	-2	-2	-2	-12
4227792643
4294934511
-12	-3	-3	-3	-2	2	4	6	8	7	7	5	4	1	-2	-3	-3	-3	-2	-2	-1	-1	-1	-1	-1	-2	-1	-2	-3	-2	-2	-2	-2	-1	-1	-2	-2	-3	-3	-3	1	5	6	8	8	8	6	4	2	1	-2	-2	-3	-2	8
3739222015
4294436731
8	-1	2	1	2	1	1	-1	-1	-1	-2	-2	-1	-2	-1	-2	-2	-2	-2	-2	-2	-2	-2	-1	-2	-2	-2	-3	-2	-2	-1	1	4	5	7	8	8	7	5	3	2	-1	-3	-3	-3	-2	-2	1	1	1	-1	-1	-1	-1	-1	-2	2
4294836159
4060086271
2	-2	-3	-2	-3	-2	-2	-2	-2	-2	-3	-2	-2	-2	2	4	7	8	9	9	7	6	4	2	-1	-2	-2	-2	-2	-1	-1	1	1	1	-1	-1	-1	-1	-2	-2	-3	-2	-3	-2	-2	-2	-2	-2	-2	-2	-3	-2	-2	-2	-1	-1	-2	-2	-3	-29
4294835683
4294963195
-29	-4	-3	-1	2	4	7	9	10	8	8	5	4	1	-1	-2	-3	-2	-2	-1	-1	1	1	1	1	-1	-2	-1	-1	-1	-2	-1	-3	-2	-2	-2	-2	-2	-2	-1	-3	-3	-3	-3	-3	-1	3	5	6	8	8	6	5	3	2	-1	-1	14
4192731135
4160749505
14	-2	-2	-2	-1	1	1	2	1	-1	-1	-1	-2	-1	-2	-2	-3	-2	-2	-3	-2	-1	-1	-1	-1	-2	-2	-2	-3	-3	-3	-2	1	4	6	8	9	7	7	4	2	1	-1	-2	-3	-3	-3	-1	-1	1	1	1	2	-1	7
4294967279
4010803197
7	-1	-3	-3	-3	-3	-3	-2	-2	-1	-2	-1	-2	-3	-2	-2	-1	1	3	5	7	8	7	7	5	3	1	-2	-3	-3	-3	-2	-2	-2	1	1	1	1	-1	-1	-1	-3	-2	-3	-2	-3	-2	-1	-2	-1	-2	-3	-2	-4	-3	-2	1	-26
4290752575
4293918719
-26	6	7	9	8	7	5	4	1	-1	-3	-3	-3	-2	-2	-1	1	1	-1	-1	-1	-3	-3	-3	-3	-2	-2	-2	-1	-2	-2	-3	-3	-3	-1	2	4	7	8	8	8	6	4	2	1	-1	-2	-3	-2	-3	-1	-1	-1	1	1	11
2617245567
3756990463
11	1	-1	-1	-1	-2	-2	-3	-3	-3	-2	-2	-1	-1	-1	-2	-2	-3	-3	-3	-2	3	4	7	7	8	7	6	4	2	-1	-3	-3	-4	-3	-2	-1	-1	1	1	1	1	-1	-2	-2	-3	-3	-3	-2	-1	-2	-1	-1	-2	-3	-20
4294966499
4294836095
-20	-2	-2	1	2	3	6	6	7	7	6	4	3	2	-1	-1	-3	-3	-4	-2	-2	-1	1	1	1	-2	-1	-3	-3	-2	-3	-2	-1	-2	-1	-3	-3	-4	-4	-3	-2	3	6	8	9	8	7	6	3	2	-2	-3	-3	-3	-3	-2	-1	6
3103784959
4025958399
6	1	1	1	-1	-1	-2	-2	-3	-3	-3	-3	-2	-2	-1	-2	-2	-3	-4	-3	-2	-1	3	5	7	9	8	8	5	3	2	-1	-2	-2	-2	-2	-1	-1	1	1	1	1	-1	-1	-2	-2	-3	-4	-3	-3	-3	-2	-2	-1	-2	-3	-23
4026268179
4294836094
-23	-3	-3	2	5	7	8	9	8	5	4	2	-1	-1	-3	-2	-2	-1	-1	-1	1	-1	-2	-2	-3	-3	-2	-2	-1	-1	-1	-1	-3	-3	-4	-3	-2	3	5	7	7	8	6	5	3	1	-1	-3	-2	-3	-3	-1	9
4278190063
4294698495
9	1	1	1	1	1	1	-1	-1	-2	-3	-2	-3	-3	-2	-2	-1	-2	-1	-1	-1	-2	-3	-3	-2	-2	2	4	6	6	7	6	5	4	1	1	-1	-2	-2	-2	-3	-2	-1	1	2	1	1	1	-1	-1	-1	-2	-2	-2	-3	-2	-1	-2	-5
4290768878
3757965311
-5	-1	-1	-2	-2	-3	-3	-3	-1	2	4	5	6	6	6	5	3	2	-1	-1	-3	-2	-3	-1	-1	1	1	2	1	-1	-1	-1	-1	-1	-2	-2	-1	-2	-1	-2	-1	-1	-1	-1	-1	-2	-3	-4	-3	-2	-1	1	3	6	6	7	6	5	13
4288659455
4278173561
13	2	1	-1	-2	-2	-3	-2	-1	1	2	1	1	1	1	-1	-1	-1	-2	-2	-2	-2	-3	-3	-2	-3	-1	-1	-1	-1	-1	-3	-2	-3	-2	-1	3	4	7	7	7	6	5	2	1	-1	-2	-2	-2	-2	-1	1	1	1	1	-1	8
3220700671
2145017839
8	-1	-1	-2	-2	-2	-2	-3	-2	-2	-1	-1	-1	-1	-1	-1	-2	-2	-2	-2	2	4	5	6	7	6	4	3	2	-1	-2	-2	-2	-3	-1	-1	-1	1	1	1	1	-1	-1	-2	-1	-3	-2	-2	-1	-2	-1	-1	-2	-1	-15
4093509371
4294963195
-15	-2	-2	-2	3	5	6	6	6	4	4	2	-1	-1	-2	-2	-1	-2	-1	-1	1	1	1	1	1	-1	-1	-1	-1	-1	-1	-2	-2	-2	-2	-2	-1	-2	-1	-1	-1	-1	-2	-2	-1	-2	2	3	5	7	6	6	4	3	1	-1	-2	10
4276617007
2141189823
10	-2	-3	-2	-1	-1	1	2	1	1	-1	-1	-1	-1	-2	-2	-2	-3	-2	-2	-1	-1	-2	-2	-2	-1	3	4	6	6	6	5	3	2	-2	-2	-3	-2	-2	-1	-1	1	1	1	1	-1	-1	-1	-1	-2	-2	-2	-7
4160225276
3992961023
-7	-2	-1	-1	-1	-1	-1	-2	-3	-2	-1	1	3	5	6	5	6	4	3	2	1	-1	-1	-2	-3	-2	-2	-1	1	1	1	1	-1	-1	-1	-2	-2	-3	-2	-3	-1	-1	-1	-1	-1	-2	-3	-2	-2	-1	1	3	5	6	7	6	5	13
3487500287
4294967208
13	2	-2	-3	-2	-3	-2	-1	1	1	1	1	1	-1	-2	-3	-3	-2	-3	-1	-2	-1	-1	-2	-3	-2	-3	-1	-1	2	4	6	6	8	6	6	5	2	1	-1	-3	-3	-3	-3	-3	-1	-1	-1	1	1	1	6
4294950887
4265607165
6	-1	-2	-2	-3	-3	-2	-2	-2	-1	-2	-1	-3	-2	-3	-2	-1	3	4	7	7	7	7	5	3	2	-2	-2	-3	-2	-2	-1	1	1	1	2	-1	-2	-1	-2	-2	-3	-2	-2	-3	-1	-2	-1	-1	-2	-2	-2	-3	-3	-2	-2	2	-20
4286578239
4292870131
-20	6	7	7	7	6	3	2	-1	-2	-3	-3	-2	-2	-1	1	1	1	2	2	1	1	-2	-2	-2	-3	-2	-2	-2	-2	-2	-1	-2	-2	-2	-3	-1	-1	3	5	7	7	7	6	4	2	1	-1	-1	-3	-4	-3	-3	-3	-1	1	1	7
2684354559
4278124543
7	-1	-1	-1	-2	-2	-3	-2	-2	-2	-1	-2	-1	-3	-2	-3	-2	-2	-2	1	3	5	7	8	8	6	6	2	1	-1	-2	-3	-4	-3	-3	-2	-1	1	2	1	2	1	1	-1	-2	-2	-3	-3	-2	-2	-2	-2	-2	-3	-2	-3	-3	-2	-1	2	-21
4294942719
4294934141
-21	5	7	8	7	6	4	2	-1	-1	-3	-3	-3	-2	-3	-1	-1	1	1	1	1	-1	-1	-2	-2	-2	-2	-2	-3	-3	-3	-3	-3	-2	-3	-1	1	3	5	8	8	8	7	6	3	1	-2	-2	-3	-2	-2	-2	1	2	1	2	1	-1	14
4294836095
503315967
14	-1	-2	-2	-2	-2	-3	-3	-3	-3	-2	-3	-2	-2	2	4	5	6	6	6	5	3	2	-1	-2	-2	-3	-2	-2	-2	1	1	1	-1	-1	-2	-2	-2	-2	-2	-2	-2	-3	-3	-2	-3	-3	-1	1	4	5	7	6	6	4	3	1	18
3207069695
4278090751
18	-2	-2	-2	-2	-2	-1	1	-1	-1	-2	-2	-2	-1	-2	-1	-1	-1	-1	-2	-3	-3	-4	-2	-1	1	4	6	8	7	7	6	3	2	-1	-2	-2	-3	-3	-3	-2	2	2	1	1	-1	-1	-1	-2	-1	-1	-2	-1	-2	-3	-7
4294947815
4293918717
-7	-5	-6	-6	-4	-3	1	4	6	7	6	6	3	3	1	1	-1	-1	-1	1	1	2	1	1	-1	-1	-2	-2	-3	-2	-2	-3	-3	-3	-4	-3	-2	-2	2	4	5	6	7	6	5	3	2	1	-1	-2	-3	-3	-3	-2	-2	-2	1	2
4026523647
4206886911
2	1	1	-1	-1	-1	-1	-2	-1	-2	-3	-2	-3	-4	-3	-3	-3	1	4	5	7	7	6	6	4	3	1	-1	-1	-2	-2	-3	-1	-1	-1	1	1	-1	-1	-1	-1	-2	-1	-1	-2	-1	-2	-3	-2	-3	-3	-3	-2	-2	1	3	5	6	7	6
4294668287
4026269671
6	6	4	2	1	-1	-2	-2	-3	-3	-2	-2	-1	1	1	1	1	-1	-1	-2	-2	-2	-2	-1	-2	-2	-2	-2	-3	-4	-2	-2	2	4	5	7	6	6	4	3	2	-1	-2	-3	-3	-4	-2	-1	-1	1	1	1	1	1	-1	-1	-1	-1
4294967289
134217727
-1	-2	-2	-2	-3	-3	-3	-3	-3	-1	1	2	4	5	7	6	5	4	3	2	-1	-1	-2	-4	-3	-3	-2	-1	-1	1	-1	-1	-2	-2	-2	-3	-3	-3	-4	-2	-2	1	3	5	7	7	7	6	4	4	1	1	-2	-2	-4	-4	-4	1
4269800959
2134474743
1	-1	-1	1	1	1	1	-1	-1	-2	-3	-2	-2	-3	-2	-3	-4	-4	-3	-2	2	5	7	7	7	7	5	4	2	-1	-2	-3	-3	-3	-2	-1	1	1	1	-1	-2	-1	-3	-2	-3	-4	-3	-4	-4	-3	-2	2	5	7	-6
4277981183
4026266575
-6	9	7	5	4	2	1	-2	-3	-3	-3	-3	-2	1	2	-1	-1	-1	-1	-2	-2	-2	-2	-3	-3	-3	-4	-4	-3	-1	3	4	7	7	8	6	6	3	1	-2	-2	-3	-3	-2	-2	1	1	1	1	-1	-2	-2	-2	2
4292868095
4160749567
2	-3	-2	-2	-3	-3	-2	-3	-3	-2	1	4	5	7	8	7	5	4	2	-1	-3	-3	-3	-3	-2	-1	-1	1	2	1	1	1	1	-1	-2	-1	-2	-2	-2	-3	-2	-2	-3	-3	-4	-3	-3	-1	1	3	6	6	8	6	5	4	1	1	-1	-1	-3	12
4226809855
4294959103
12	-3	-2	-2	-1	1	1	1	1	1	-1	-1	-2	-2	-3	-2	-3	-2	-2	-3	-3	-4	-3	-2	-1	2	4	6	7	7	6	5	3	2	1	-1	-2	-2	-3	-3	-2	-2	-1	1	1	1	2	1	-1	-1	-2	-2	-2	-1	-2	-2	-2	-3	-4	-3	-4	-24
4293915407
4290772975
-24	-1	1	4	5	7	7	6	6	4	2	-1	-2	-2	-3	-3	-2	-2	-1	1	1	-1	-2	-1	-2	-2	-2	-2	-3	-3	-3	-4	-2	-1	3	5	7	7	6	6	4	3	1	-1	-2	-2	-3	-3	-2	-2	-1	1	1	1	1	5
3221209039
3464495103
5	-1	-1	-1	-1	-2	-2	-1	-2	-2	-3	-3	-3	-2	-3	-1	3	5	6	7	7	6	4	2	-2	-2	-2	-3	-2	-2	2	2	2	-1	-1	-2	-3	-2	-2	-2	-2	-2	-2	-2	-2	-3	-2	-2	-1	1	3	5	6	7	7	6	18
4292509695
3220693919
18	2	1	-1	-1	-3	-2	-3	-3	-2	-1	1	1	-1	-1	-1	-1	-1	-2	-2	-3	-2	-3	-3	-2	-3	-3	-3	-2	1	4	5	7	7	7	5	4	2	1	-2	-1	-3	-2	-2	-1	1	1	1	-1	-2	-1	-2	-2	-1
4292868080
3690985469
-1	-2	-2	-3	-2	-3	-3	-3	-3	-2	1	4	5	6	7	7	5	4	3	-1	-2	-2	-3	-2	-2	-2	1	1	1	-1	-2	-1	-2	-3	-2	-3	-2	-2	-2	-3	-3	-3	-2	-2	3	5	6	8	7	6	5	3	1	-1	15
4166254591
4290710207
15	-2	-2	-2	-2	1	1	-1	-2	-1	-3	-3	-3	-2	-3	-2	-1	-2	-2	-2	-3	-3	-2	-2	1	3	5	8	8	7	7	4	3	2	-1	-2	-3	-3	-2	-2	1	1	-1	-2	-2	-2	-3	-2	-3	-8
4294966263
2785017727
-8	-2	-1	-1	-1	-2	-3	-2	-3	-2	-1	1	3	5	7	7	8	6	5	3	2	-2	-2	-3	-4	-2	-2	1	1	1	1	1	-1	-1	-2	-3	-2	-3	-2	-2	-2	-2	-1	-1	-2	-2	-2	-3	-3	-2	2	5	6	8	8	7	5	20
3758094332
4294967295
20	2	-1	-2	-3	-2	-3	-1	-1	1	1	1	1	1	1	1	2	1	1	-1	-1	-1	-2	-1	-1	-1	1	1	-3	-3	-4	-3	1	6	11	15	18	18	16	10	6	-2	-7	-13	-17	-18	-17	-14	-10	-5	-1	2	5	7	10	14	17	18	16	10	97
4294967295
4227858431
97	-12	-22	-29	-32	-31	-27	-21	-16	-9	-3	1	4	3	3	1	2	3	6	10	12	11	7	1	-4	-9	-12	-12	-12	-9	-6	-3	1	3	4	4	2	-4	-5	-5	-5	-4	-2	1	3	4	6	7	8	7	5	4	4	4	7	11	15	21	24	26	26	24	21	126
4294967295
4026531835
126	15	13	12	11	9	6	1	-3	-9	-12	-13	-13	-13	-11	-12	-13	-16	-19	-21	-23	-23	-21	-19	-15	-9	-5	1	5	8	7	4	1	-2	-2	3	6	8	10	9	8	8	8	7	5	3	-1	-3	-6	-6	-7	-6	-5	-4	-3	-3	-2	-2	-1	-1	-1	-1	-33
4060086271
4194303871
-33	-1	-1	-1	-1	-3	-3	-4	-3	-2	1	5	7	9	10	8	7	4	3	3	2	2	2	2	1	2	2	3	3	3	4	3	3	1	-2	-2	-2	-2	-2	-2	-1	-1	-2	-2	-3	-4	-4	-5	-4	-4	-1	3	4	6	6	6	5	4	31
4292935679
4294361599
31	1	1	-2	-2	-2	-3	-3	-1	-1	-1	-1	-1	-1	-2	-2	-2	-2	-1	-2	-2	-3	-3	-3	-4	-3	-2	-2	1	3	4	6	6	5	5	3	2	1	1	-1	-1	-1	1	-1	-1	-2	-2	-3	-2	-2	-2	-3	-3
4286575565
2147479543
-3	-2	-2	-2	-3	-2	-2	-2	1	3	4	6	6	6	5	4	3	1	1	-1	-1	-2	-1	1	1	1	-1	-1	-1	-1	-2	-3	-3	-4	-3	-4	-3	-4	-4	-5	-5	-4	-4	-1	2	3	3	4	3	2	1	1	-1	-1	-1	-18
3757309951
4265586687
-18	-1	1	1	2	2	2	3	2	2	2	-1	-1	-1	-1	-1	-1	-2	-1	-2	-2	-2	-1	-1	1	2	5	5	7	8	7	6	4	3	2	1	-1	-1	-1	-2	-1	-1	-2	-1	-1	-1	-2	-2	-1	-2	-1	-2	-2	-2	-3	-4	-4
4261385715
4294967039
-4	-4	-4	-4	-2	-2	3	4	6	6	6	5	4	2	2	1	-1	-1	1	1	1	1	1	-1	-1	-1	-1	-2	-1	-2	-2	-1	-3	-3	-4	-6	-5	-5	-4	-3	1	2	5	5	6	5	4	2	-1	-1	-2	-1	-2	-2	-1	-1	-5
2566913791
4291034879
-5	1	1	-1	-2	-2	-2	-1	-2	-1	-2	-1	-2	-2	-3	-3	-3	-1	3	4	6	7	6	6	4	4	2	1	-1	-2	-2	-3	-3	-2	-1	-1	-1	-1	-1	-2	-2	-2	-1	-1	-1	-2	-1	-2	-3	-1	-1	1	3	-16
4286524543
4294835232
-16	5	6	6	4	4	2	1	-2	-2	-3	-4	-3	-3	-1	1	1	1	-1	-1	-2	-1	-2	-2	-2	-3	-2	-2	-1	1	3	4	6	7	7	5	5	2	1	-2	-3	-4	-4	-4	-2	-2	-1	-4
3221219308
2147483583
-4	-1	-2	-2	-4	-3	-3	-3	-1	2	3	5	6	6	6	5	3	3	-2	-2	-3	-3	-2	-1	1	2	-2	-2	-1	-2	-1	-1	-2	-2	-3	-3	-4	-3	-2	-1	1	3	5	7	8	7	6	5	3	2	-2	-3	-4	-4	-4	-3	2
2407529471
4285792247
2	1	1	1	-1	-1	-1	-2	-2	-2	-3	-3	-4	-3	-4	-2	-2	2	4	7	7	7	7	6	4	2	1	-1	-1	-3	-3	-2	-3	-2	-1	1	1	1	-2	-1	-2	-1	-2	-2	-1	-2	-2	-2	-3	-2	-3	-2	1	4	4	-3
4261210111
4294441611
-3	5	5	4	2	2	-1	-2	-2	-3	-2	-2	-2	1	1	1	-1	-2	-1	-2	-2	-2	-3	-3	-2	-3	-3	-2	-1	1	3	5	6	7	7	6	4	4	1	-2	-3	-4	-4	-4	-2	-2	-1	1	1	-1	-2	-1	-5
4294967230
4294967294
-5	-2	-3	-4	-4	-3	-3	-1	1	3	5	7	6	7	5	4	3	1	-1	-2	-3	-4	-3	-3	-2	1	1	1	1	1	-1	-1	-2	-1	-2	-2	-2	-3	-3	-3	-3	-3	-2	-1	2	4	6	7	7	7	6	4	2	1	-1	-1	-2	-3	-2	-1	-1	10
3892310013
4160733183
10	2	1	-1	-2	-1	-2	-1	-2	-2	-2	-3	-3	-3	-2	-2	-1	2	4	6	7	8	8	6	5	2	1	-2	-2	-1	-1	-1	2	2	3	3	4	4	4	3	3	2	2	1	-1	-2	-2	-2	-1	-2	-1	-2	-1	-1	1	3	3	3	56
4294049599
4294950879
56	-3	-6	-9	-11	-11	-10	-9	-7	-6	-3	-1	-1	-3	-4	-6	-5	-5	-3	-2	-1	2	2	3	4	5	5	7	7	8	7	6	5	3	1	-2	-3	-5	-6	-5	-6	-5	-3	-2	2	4	5	6	4	2	1	-1	-1	-1	-1	-2	-2	-7
3623843835
4294967295
-7	-1	1	-1	-2	-4	-5	-5	-5	-5	-6	-6	-5	-3	2	2	1	-2	-3	-4	-4	-3	-4	-2	-2	4	9	13	17	20	20	19	16	14	10	7	3	-1	-3	-5	-7	-6	-6	-7	-7	-8	-12	-15	-18	-21	-23	-23	-23	-20	-17	-14	-9	-6	-2	-173
4294967039
4294961151
-173	6	9	13	17	18	19	18	16	16	15	17	19	19	19	16	15	12	9	8	6	4	1	-3	-4	-5	-5	-6	-6	-7	-8	-7	-7	-6	-5	-5	-4	-4	-5	-6	-5	-6	-6	-6	-6	-5	-5	-4	-3	-2	2	2	3	4	3	3	3	1	1	1	-1	0
424673183
4248918572
-1	1	1	1	-1	-1	-2	-2	-2	-2	-3	-4	-3	-4	-3	-2	-1	2	2	2	3	3	2	2	2	1	1	1	1	-1	1	1	1	1	1	-1	-1	-1	-3
4294964263
4286578686
-3	1	3	3	3	3	3	2	3	2	2	2	1	2	1	1	1	1	2	1	1	-1	-1	-2	-1	-2	-2	-2	-2	-1	-1	-1	-1	-1	-2	-3	-4	-6	-7	-6	-7	-5	-5	-3	-2	-1	-2	-1	-2	-2	-3	-3	-3	-2	-1	-51
4294963199
34537439
-51	1	2	2	2	1	1	2	1	3	4	5	6	6	6	5	4	2	1	-1	-2	-2	-3	-2	-1	-1	1	1	1	2	1	-1	-1	-1	-2	2	4	5	6	6	6	4	4	2	1	-1	-1	-1	-2	-3	22
4287561724
4294927355
22	-3	-3	-4	-3	-4	-2	-2	-2	1	1	1	1	1	2	1	1	2	2	3	2	3	3	2	2	1	-1	-2	-2	-2	-3	-2	-3	-3	-3	-3	-3	-3	-2	-3	-1	-2	-1	1	-1	-2	-2	-2	-3	-1	-1	2	2	-16
4282569215
805245210
-16	2	3	2	2	1	1	-1	-1	1	1	1	1	-1	-1	-1	-2	-2	-1	-1	-1	-1	-1	1	1	1	3	3	3	3	3	2	2	1	1	-1	1	-1	-1	-1	6
4294952958
1173569519
6	-1	-1	-1	-1	-1	-1	-1	-1	-1	1	1	2	2	2	3	1	2	-1	-2	-1	-3	-2	-3	-2	-2	-2	-1	1	-1	1	1	1	1	1	-1	-1	1	2	2	2	3	2	2	1	1	-1	-1	-2	-1	5
4254498751
3354162044
5	-1	-1	-2	-1	-1	-1	1	-1	-1	-1	-1	-1	-1	-1	-1	-2	-1	-1	2	2	3	3	3	3	1	2	-1	-1	-2	-2	-1	-1	1	1	-1	-1	-1	-1	-1	-1	-1	-1	-1	-1	-9
4294952024
2751447039
-9	2	4	3	4	2	2	1	-1	-1	-2	-2	-2	-2	-2	-2	-1	-1	1	1	1	1	-1	-1	1	2	3	3	4	3	3	2	1	1	-1	-2	-2	-2	-3	-2	-3	-2	-3	-2	-2	-1	-1	-1	-1	-10
2281701283
1342173182
-10	-1	-1	-1	-1	-2	-3	-2	-2	-1	1	2	3	5	5	4	4	3	3	2	1	1	1	1	1	-1	-2	-2	-3	-3	-2	-3	-3	-2	-2	-2	-2	-1	-2	-1	1	3	3	5	4	5	3	4	2	2	1	14
4261412863
4278118399
14	-1	-2	-1	-1	-1	-1	-1	-1	-2	-3	-3	-3	-3	-2	-2	-2	-2	-2	-3	-4	-4	-3	-3	-3	-1	1	2	3	5	6	7	6	6	5	4	3	1	-1	-2	-3	-3	-3	-1	-1	1	1	1	-1	-1	-1	-3	-2	-4	-3	-4	-4	-3	-3	-34
4160733183
4294967295
-34	-3	-3	-2	4	6	10	12	13	10	7	3	-1	-2	-2	-2	1	2	3	3	5	6	8	10	12	13	14	12	9	6	2	-3	-6	-9	-12	-15	-19	-23	-28	-34	-38	-38	-36	-30	-20	-10	-1	6	11	15	15	16	16	14	13	13	11	12	13	15	16	18	22
4294967295
4260888575
22	15	12	8	3	1	-1	-2	-2	-2	-3	-4	-5	-5	-5	-4	-4	-3	-3	-3	-3	-3	-4	-5	-4	-3	-1	2	6	8	11	11	10	10	7	6	4	2	-2	-2	-2	-2	-2	-1	-1	-1	-2	-2	-2	-3	-3	-3	-3	-5	-5	-6	-5	-5	-5	-3	-3	-3	-5
4278189963
1073737723
-5	-4	-4	-5	-5	-4	-2	3	6	9	11	11	10	8	6	4	1	-1	-2	-3	-3	-3	-1	-1	-1	-1	-1	-1	-2	-2	-4	-4	-5	-3	-3	-2	-2	-2	-3	-4	-4	-5	-3	-2	3	6	8	8	9	8	6	3	2	-1	-3	18
4220518399
4294922751
18	-2	-1	-1	1	1	1	1	-1	-2	-2	-2	-3	-3	-2	-3	-2	-3	-2	-3	-4	-4	-4	-2	-2	2	4	7	8	9	8	8	5	3	1	-1	-3	-3	-3	-3	-2	-2	-2	-1	1	1	-2	-2	-2	-2	-2	-2	-3	-2	-4	-14
4294950795
2147483639
-14	-4	-5	-6	-5	-4	-2	1	4	8	9	11	10	9	6	4	2	-1	-2	-2	-2	-2	-2	-1	1	1	-1	-2	-2	-3	-3	-4	-3	-3	-3	-3	-3	-4	-4	-4	-5	-3	-2	2	5	7	10	11	10	9	7	4	3	1	-2	-3	-3	21
4211081199
4294834175
21	-3	-2	-1	-1	-1	-1	-1	-1	-1	-3	-2	-3	-4	-4	-3	-4	-3	-3	-3	-4	-4	-5	-3	-2	4	6	9	11	10	9	7	5	2	1	-1	-3	-2	-3	-3	-2	-1	-1	1	2	1	1	1	-1	-2	-2	-3	-2	-3	-3	-3	-4	-3	-4	-21
4294901331
4294967039
-21	-5	-4	-4	-1	1	4	7	8	9	8	6	5	3	1	-2	-2	-3	-3	-2	-2	-1	1	1	-1	-2	-2	-2	-3	-3	-4	-3	-4	-3	-5	-4	-4	-3	-2	2	5	7	10	10	10	8	6	4	1	-2	-3	-3	-3	-3	-2	-1	-1	4
2281701375
4292345855
4	-1	-1	-1	-1	-1	-1	-2	-3	-3	-4	-5	-5	-6	-5	-4	-1	2	4	8	9	9	9	8	6	4	2	1	-1	-2	-3	-4	-4	-3	-2	-2	-1	-1	-1	-1	-1	-1	-1	-2	-2	-1	-2	-3	-3	-4	-4	-4	-4	-1	2	5	7	10	-2
4261216255
4294705127
-2	11	8	7	4	1	-3	-3	-5	-4	-4	-3	-1	2	1	1	1	-1	-1	-1	-2	-3	-2	-2	-3	-2	-4	-4	-4	-4	-4	-2	1	3	6	8	8	9	7	6	3	2	-1	-2	-4	-4	-3	-4	-1	-1	1	1	2	2	1	-1	-2	-3	3
4294965231
3221225343
3	-4	-4	-4	-4	-4	-4	-4	-3	-1	1	3	5	8	8	8	6	6	3	1	-3	-3	-4	-4	-3	-2	1	1	1	1	-1	-2	-2	-2	-2	-2	-2	-4	-4	-5	-5	-4	-3	-1	2	5	7	9	9	8	6	5	3	-1	-2	-3	-4	-3	-3	-1	2
2818572287
4232052735
2	1	-1	-1	-2	-1	-2	-2	-3	-4	-4	-6	-6	-5	-4	-2	2	5	8	9	11	10	8	7	5	2	1	-2	-2	-3	-4	-3	-3	-1	-1	-1	-2	-2	-2	-2	-3	-4	-4	-5	-5	-6	-5	-4	-2	2	4	8	10	10	10	7	6	23
4290641917
4294766719
23	2	1	-1	-2	-3	-2	-2	-1	2	2	2	1	-1	-3	-2	-3	-4	-3	-3	-4	-5	-5	-6	-6	-6	-5	-2	3	6	8	9	10	8	6	4	2	1	-1	-1	-2	-1	-1	1	1	1	1	-1	-2	-2	-3	-2	-3	-3	1
4294965247
3053453311
1	-2	-2	-3	-3	-3	-5	-5	-4	-4	-1	2	5	7	9	10	8	7	5	3	-1	-3	-3	-3	-2	-1	1	2	2	2	1	1	-1	-1	-1	-1	-2	-1	-3	-2	-3	-3	-2	-3	-2	-3	-3	-3	-4	-4	-3	-2	-1	2	5	6	8	8	7	5	18
4290592767
4160618166
18	1	1	-2	-2	-3	-3	-2	-1	1	1	1	1	1	-1	-1	-2	-3	-3	-4	-3	-3	-2	-2	-1	-2	-1	-2	-3	-2	-3	-2	1	4	6	8	7	7	6	3	2	-1	-2	-3	-3	-2	-2	-1	-1	1	1	1	1	-1	3
4294967295
75497471
3	-1	-2	-2	-3	-2	-2	-2	-1	-2	-3	-4	-4	-3	-2	1	3	7	7	8	7	6	3	2	1	-1	-1	-2	-3	-2	-2	-1	1	-1	-2	-2	-2	-2	-3	-2	-2	-2	-2	-3	-2	-2	-2	-2	-1	2	3	6	7	8	8	5	15
3751739391
4293915583
15	2	-2	-2	-2	-2	-2	-1	1	1	1	1	-1	-1	-2	-2	-2	-4	-3	-3	-3	-3	-2	-2	-3	-2	-3	-2	-1	1	4	6	7	7	7	5	5	2	1	-1	-2	-2	-3	-3	-3	-1	-1	1	1	1	-1	-1	-1	-2	-2	-3	-9
4290768885
536870895
-9	-2	-2	-3	-2	-3	-4	-3	-1	3	5	7	8	8	6	5	3	2	-1	-3	-3	-4	-3	-3	-2	-1	1	1	-1	-1	-1	-2	-3	-2	-2	-2	-2	-3	-4	-3	-3	-1	2	4	7	7	8	6	6	4	2	1	-1	-3	-3	-4	3
3976200191
4290904063
3	-2	-1	1	1	-1	-1	-2	-2	-1	-2	-2	-2	-3	-2	-3	-3	-3	-2	-1	1	3	6	8	9	8	7	6	4	2	-1	-1	-4	-3	-5	-3	-3	-2	-1	-1	-1	-2	-1	-2	-2	-3	-4	-3	-4	-5	-3	-3	-1	1	3	6	-15
4278112255
4294439807
-15	8	8	7	5	4	2	-1	-3	-3	-4	-3	-2	-1	1	1	-1	-2	-2	-1	-1	-2	-1	-2	-3	-4	-4	-4	-3	-1	1	3	6	7	8	7	7	5	3	2	-2	-2	-3	-3	-3	-2	-1	1	1	-1	-1	-2	-2	-2	-2	-2	-6
4278190059
4294704894
-6	-3	-3	-2	-3	-3	-2	1	4	7	8	8	8	6	5	2	1	-1	-2	-4	-4	-4	-4	-3	-1	-1	1	-1	-1	-2	-1	-1	-1	-1	-2	-2	-2	-3	-3	-3	-3	-1	3	6	7	8	7	7	4	3	1	-1	-3	-3	-3	-3	-2	-1	8
3300917223
4066377726
8	1	-1	-1	-2	-3	-3	-5	-4	-4	-3	-2	1	2	5	6	7	6	6	3	3	-2	-3	-3	-2	-3	-1	-1	1	-1	-1	-2	-1	-2	-3	-3	-3	-4	-3	-2	-1	1	4	5	7	8	7	5	4	2	22
4286054399
4294640639
22	-3	-3	-4	-3	-3	-2	-1	2	1	1	-1	-1	-2	-2	-2	-3	-2	-3	-3	-4	-3	-2	-2	1	2	5	6	7	7	6	5	2	1	-1	-3	-4	-4	-4	-4	-2	-1	1	1	1	-1	-1	-2	-3	-2	-3	-3	-2	-1	1	-15
4294916159
4294441951
-15	5	6	5	6	4	3	1	-1	-1	-3	-4	-4	-3	-3	-2	1	1	1	-1	-1	-2	-3	-4	-3	-4	-3	-1	1	3	5	7	7	7	5	4	3	-1	-3	-3	-4	-5	-3	-2	-1	2	1	1	1	-1	-2	-2	-1	-2	-10
4278173660
4294704895
-10	-2	-3	-3	-3	-3	-2	2	5	7	8	8	7	6	3	2	-2	-2	-4	-4	-4	-3	-2	-1	1	2	1	-1	-1	-2	-1	-2	-2	-2	-3	-4	-3	-4	-3	-2	3	5	6	7	8	6	5	3	1	-2	-2	-3	-3	-2	-1	-1	1	7
4160745471
4225761279
7	1	1	1	-1	-1	-1	-2	-2	-2	-3	-3	-3	-4	-4	-5	-3	-3	2	5	6	7	7	7	6	3	2	1	-2	-2	-3	-3	-3	-2	-1	1	2	1	1	-1	-2	-2	-2	-3	-3	-3	-3	-3	-3	-4	-3	-2	-1	1	3	5	6	7	7	6	13
4024982527
4286526463
13	4	1	-1	-3	-3	-4	-3	-2	-1	1	-1	-1	-1	-1	-2	-2	-3	-3	-3	-3	-1	1	3	4	6	7	6	5	4	2	1	-2	-4	-3	-5	-3	-3	-2	1	1	-1	-1	-2	-1	-2	-1	-2	-2	-3	-3	-21
4294703679
4294963192
-21	-3	-1	1	3	6	7	7	8	6	4	3	1	-1	-2	-3	-2	-2	-2	-1	1	-1	-2	-2	-2	-2	-2	-2	-2	-3	-3	-4	-4	-3	-3	-1	1	4	6	8	8	8	6	4	3	1	-1	-2	-2	-3	-2	-1	-1	-1	1	10
4294934479
2315255803
10	-1	-2	-1	-2	-2	-1	-3	-2	-2	-3	-3	-4	-3	-4	-2	3	5	7	8	9	7	5	4	2	-2	-3	-2	-3	-2	1	-1	-1	-1	-1	-2	-1	-1	-2	-2	-2	-2	-2	-1	-1	-1	-1	-2	-2	-3	-4	-3	-1	3	4	-9
4269597407
4294442495
-9	8	7	6	4	3	1	-2	-2	-2	-2	-2	1	1	1	-1	-1	-1	-2	-1	-2	-2	-2	-2	-1	-1	-1	-2	-1	-2	-3	-3	-3	-2	-3	1	3	6	6	6	6	4	2	1	-1	-1	-3	-2	-2	-1	1	1	3	9
3825188863
4159610879
9	2	2	-1	-2	-1	-3	-2	-3	-2	-3	-1	-2	-1	-1	-1	-1	-1	-3	-2	-3	-1	-1	2	3	5	6	6	5	5	3	1	-2	-2	-3	-3	-2	-1	1	1	1	1	-1	-1	-1	-1	-1	-2	-2	-2	-2	-1	-2	-1	-1	-14
4261412788
2147483647
-14	-2	-1	-2	-2	-2	1	3	5	6	7	6	5	3	2	1	-1	-1	-2	-3	-2	-2	-2	-1	1	1	1	-1	-1	-1	-2	-3	-2	-3	-2	-1	-1	-1	-1	-1	-1	-2	-3	-3	-2	-1	2	4	6	7	8	6	6	3	3	1	-1	-1	15
4057989119
4292865663
15	-3	-2	-2	1	1	-1	-1	-1	-1	-1	-2	-1	-2	-3	-2	-2	-2	-2	-1	-1	-2	-2	-2	-3	-3	-3	-1	1	3	5	7	8	7	6	5	3	2	-1	-3	-2	-3	-3	-1	-1	1	1	1	1	-1	-1	-1	-2	-2	-3	-2	-7
4294966783
4227857919
-7	-2	-1	-2	-1	-1	-2	-2	-3	-2	-3	-1	-1	2	4	6	7	8	7	5	4	1	-2	-3	-2	-3	-3	-1	-1	1	1	2	1	2	1	1	-1	-2	-2	-2	-4	-3	-3	-2	-2	-2	-3	-2	-4	-3	-4	-2	2	4	6	8	8	7	6	4	2	17
4294967294
4294967291
17	-2	-2	-3	-3	-3	-3	-2	-1	-1	1	1	1	1	1	-1	-2	-2	-2	-2	-3	-2	-2	-3	-3	-3	-4	-3	-4	-3	-2	1	3	5	6	6	7	6	6	6	3	1	-1	-3	-3	-1	3	7	12	14	11	7	-1	-9	-16	-18	-18	-14	-9	-3	3	5	-17
4294967295
3749699575
-17	8	10	9	8	4	-1	-6	-9	-9	-9	-7	-4	-2	2	3	1	-3	-11	-18	-22	-19	-9	5	17	24	27	23	18	13	11	8	6	4	-3	-5	-5	-3	-2	-1	-3	-4	-6	-6	-6	-4	-2	-1	1	3	4	5	6	7	7	5	3	-2	-4	-5	29
4179623935
4260995071
29	-4	-3	-1	-1	1	-1	-1	-1	-2	-3	-3	-3	-3	-3	-3	-3	-3	-3	-3	-3	-3	-1	1	3	5	6	8	6	6	4	3	1	-2	-2	-3	-2	-3	-1	1	1	-1	-1	-2	-3	-2	-3	-3	-2	-3	-2	-2	-2	-2	-20
4026531815
4294966781
-20	-2	-1	2	4	6	8	8	8	7	4	3	1	-1	-2	-3	-4	-4	-3	-1	-1	1	1	2	1	1	-2	-2	-3	-3	-2	-3	-1	-2	-2	-2	-3	-4	-5	-3	-3	-1	2	5	6	7	8	7	5	3	2	-2	-2	-3	-2	-2	-1	-1	1	8
4160749566
4269539325
8	2	1	1	-1	-1	-2	-2	-1	-2	-2	-1	-2	-3	-2	-3	-3	-4	-3	-2	-1	2	4	6	7	7	7	5	3	2	-2	-2	-3	-3	-3	-1	-1	1	1	1	1	-1	-2	-2	-2	-3	-2	-2	-2	-2	-1	-2	-2	-2	-3	-2	-2	2	-16
4294867455
4294967101
-16	6	7	6	6	4	3	1	-1	-2	-3	-3	-3	-2	-1	1	1	1	1	-1	-1	-2	-2	-2	-3	-2	-2	-1	-2	-2	-3	-3	-3	-3	-1	1	3	6	6	7	7	5	4	3	1	-1	-1	-3	-2	-3	-2	-2	1	1	1	1	-1	4
4294934463
3196059583
4	-2	-2	-2	-2	-1	-2	-2	-2	-3	-2	-2	-3	-3	-3	-1	4	6	7	8	7	6	4	2	-1	-2	-3	-3	-3	-2	-2	1	1	1	1	1	-1	-1	-2	-2	-3	-2	-2	-1	-2	-1	-2	-3	-4	-3	-3	-2	3	6	7	8	7	7	13
4026486783
4026266075
13	3	1	-1	-2	-3	-2	-3	-1	-1	1	1	1	1	1	1	-1	-2	-3	-3	-3	-2	-2	-2	-2	-3	-2	-3	-4	-2	-1	3	5	6	7	7	5	5	3	1	-2	-3	-3	-3	-3	-2	1	1	1	1	-1	-1	-2	0
2146958328
3758096383
-1	-2	-1	-2	-2	-2	-4	-3	-4	-3	-1	3	5	7	7	7	6	4	3	-1	-2	-3	-3	-3	-2	-2	1	1	-1	-1	-1	-2	-1	-2	-1	-2	-2	-3	-3	-4	-3	-4	-2	-1	1	3	6	7	7	7	7	4	3	1	-1	-2	-2	8
4053794815
4293361663
8	-3	-2	-2	1	1	-1	-1	-1	-2	-1	-1	-1	-2	-2	-3	-3	-4	-3	-3	-2	1	3	6	8	8	8	6	5	2	1	-1	-2	-3	-4	-3	-3	-1	1	2	1	-1	-1	-2	-2	-3	-3	-3	-3	-3	-3	-3	-4	-3	-2	-2	-29
4293915903
4261396415
-29	2	5	7	8	9	7	6	5	2	1	-2	-3	-3	-3	-1	-1	-1	1	1	-1	-1	-2	-2	-3	-2	-3	-2	-3	-3	-3	-4	-3	-3	1	4	5	7	6	6	5	4	2	1	-2	-3	-4	-4	-3	-2	-1	2	2	2	2	2	1	9
3221224959
134217727
9	-1	-2	-1	-2	-2	-3	-3	-4	-3	-3	-1	1	4	5	8	8	8	6	4	3	-1	-2	-3	-4	-4	-4	-3	-2	-1	-1	-1	-1	-1	-1	-2	-2	-3	-3	-3	-4	-4	-4	-2	-1	1	4	7	7	8	7	6	4	2	1	-1	-2	16
4250927103
4293869565
16	-3	-3	-2	-2	-1	1	-1	-1	-1	-2	-1	-1	-1	-2	-1	-3	-3	-3	-3	-3	-2	-1	1	4	5	7	7	6	5	3	2	-1	-2	-2	-4	-3	-3	-3	-1	1	1	1	1	-1	-1	-2	-2	-2	-3	-3	-3	-4	-4	-3	-2	3	-20
4294932479
4026530239
-20	8	8	8	7	6	4	3	1	-1	-2	-2	-3	-4	-2	-2	-1	1	-1	-1	-1	-2	-2	-2	-1	-3	-2	-3	-3	-4	-3	-3	-2	2	3	6	7	7	7	6	4	3	1	-1	-1	-3	-3	-3	-3	-2	1	1	-1	-1	-1	-2	-1	-1	-0
2147471343
4294934431
-1	-2	-2	-3	-3	-3	-2	-2	1	2	4	5	7	7	6	4	3	-3	-2	-4	-3	-3	-1	-1	1	1	1	1	1	-1	-1	-2	-2	-2	-2	-2	-2	-2	-3	-4	-3	-4	-3	-1	3	5	7	7	7	6	5	2	-2	-3	-3	-3	-3	1
3749707775
3213064191
1	-1	1	1	1	1	1	-1	-1	-1	-1	-1	-2	-2	-2	-3	-2	-2	-3	-2	-2	-1	2	3	5	7	7	6	5	2	1	-2	-3	-3	-3	-3	-2	-1	-1	-1	-1	-1	-1	-2	-1	-2	-2	-3	-3	-3	-2	-1	1	3	-15
4294915071
4294966722
-15	7	7	6	5	3	2	1	-1	-1	-2	-2	-3	-2	-1	-1	1	1	-2	-1	-2	-1	-1	-1	-1	-2	-2	-3	-3	-4	-3	-3	-1	1	4	5	7	7	6	5	4	1	1	-1	-2	-3	-3	-4	-2	-1	1	2	1	-1	2
4293916667
4093636607
2	-2	-1	-2	-2	-3	-2	-3	-2	-2	-1	1	3	5	7	7	6	4	3	-1	-2	-4	-3	-4	-3	-2	-2	1	2	2	2	1	1	-1	-1	-1	-2	-2	-3	-2	-3	-3	-3	-3	-3	-1	2	5	5	6	6	5	3	2	1	-1	-3	-3	2
4294442943
4025769982
2	-3	-3	-2	-1	1	1	2	2	1	1	-1	-1	-2	-1	-1	-1	-1	-2	-2	-3	-3	-2	-1	1	3	5	7	6	7	5	3	2	-1	-2	-4	-3	-3	-3	-1	-1	1	-1	-1	-2	-1	-1	-2	-2	-2	-3	-3	-3	-3	-2	-23
4290723199
4227792627
-23	4	5	7	7	6	5	3	2	-1	-2	-3	-3	-3	-2	1	2	1	1	-1	-1	-2	-1	-2	-2	-2	-3	-3	-3	-4	-3	-2	2	4	6	6	7	5	5	3	2	-1	-2	-4	-3	-3	-3	-1	1	1	1	1	-1	-1	2
4293917695
3489644543
2	-2	-1	-1	-2	-2	-2	-4	-3	-3	-2	2	4	6	6	7	6	4	3	1	-2	-3	-4	-4	-3	-3	-1	1	1	1	2	1	-1	-1	-1	-2	-1	-2	-2	-2	-3	-3	-2	-3	-1	3	4	5	6	6	6	3	3	1	-1	-1	-3	-3	-4	3
3997171711
3214802939
3	-1	-1	1	2	1	-1	-1	-1	-1	-1	-1	-2	-1	-2	-2	-3	-3	-2	-1	1	3	5	5	6	5	5	3	1	-1	-2	-3	-4	-3	-2	-2	1	1	1	-1	-1	-1	-1	-2	-2	-2	-2	-3	-3	-2	-3	-3	-1	3	4	-11
4278088191
4294573807
-11	7	7	6	4	3	2	-2	-2	-3	-3	-4	-2	-2	2	1	1	-1	-1	-1	-1	-2	-2	-3	-4	-3	-4	-3	-2	-1	2	5	6	6	7	6	4	3	1	-2	-2	-2	-2	-2	-1	-1	1	1	1	-1	-2	-1	-1	-2	-2
4290768879
1073709055
-2	-1	-2	-3	-2	-3	-2	-2	-2	1	4	5	6	6	6	5	3	2	-1	-2	-4	-3	-3	-3	-1	1	1	1	1	-1	-1	-1	-2	-1	-2	-2	-1	-2	-3	-3	-2	-3	-1	2	3	5	6	6	6	4	3	2	1	-1	-1	-3	-2	-3	8
3464495103
3755950079
8	-2	1	1	1	-1	-1	-2	-1	-2	-2	-3	-2	-2	-2	-2	-2	-2	-2	-2	1	2	4	5	7	6	5	4	3	1	-1	-3	-3	-3	-3	-2	-2	1	1	2	1	1	-1	-1	-1	-2	-2	-1	-2	-2	-1	-3	-2	-3	-3	-2	-19
4294958333
4294959025
-19	2	3	4	5	6	4	4	2	1	-1	-1	-2	-2	-2	-2	-1	-1	1	1	1	-1	-1	-1	-1	-1	-1	-1	-1	-1	-2	-2	-3	-2	-2	-1	1	2	5	5	6	7	5	5	3	2	-1	-2	-2	-3	-1	-1	1	1	-2	10
4294967275
534249471
10	-3	-3	-2	-3	-3	-3	-5	-5	-6	-7	-6	-5	-5	-2	-2	2	3	6	7	8	8	8	5	4	2	1	-1	-1	-1	2	1	2	1	1	1	-1	-1	-1	-1	-1	-1	-2	-3	-2	-3	-2	-2	-1	1	3	4	6	6	5	5	3	22
2683600895
4294958647
22	-2	-2	-3	-3	-2	-3	-1	-1	-1	1	-1	-1	-2	-2	-2	-1	-2	-1	-2	-2	-2	-2	-2	-1	-1	2	4	5	7	6	6	4	3	1	-1	-2	-2	-2	-2	-2	-1	-1	1	2	1	1	1	-1	-1	-1	-1	-1	7
4278189998
4294835711
7	-1	-1	-2	-1	-2	-1	1	4	6	7	7	6	5	3	1	-2	-3	-3	-4	-3	-2	-1	-1	1	1	1	-1	-1	-1	-1	-1	-1	-3	-4	-5	-6	-7	-6	-4	-4	-2	1	2	4	4	4	3	3	-1	-4	-6	-9	-12	-16	-20	-25	-26	-148
4294967295
4290490367
-148	-21	-14	-4	5	16	27	36	43	43	39	31	20	10	5	4	5	6	5	2	-4	-10	-12	-13	-11	-9	-7	-7	-7	-7	-7	-4	-4	-3	-3	-3	-5	-4	-4	-2	-1	2	1	1	-1	-1	-2	-1	1	2	2	3	3	3	4	4	4	2	2	-2	7
4269767935
4179597307
7	-6	-7	-6	-5	-4	-2	2	2	3	3	3	2	1	-1	-1	-1	-1	-1	1	2	2	3	3	3	3	2	2	2	2	1	1	-1	-1	-1	-1	-1	-1	-1	1	1	-1	-2	-3	-3	-4	-2	-1	1	1	-2
4268228095
268402183
-2	1	2	2	2	2	1	-1	-1	1	2	2	3	2	2	2	1	1	-1	-2	-2	-2	-2	-2	-1	-2	-1	-1	-2	-3	-4	-3	-2	-2	-1	-1	-1	-1	-1	1	2	2	2	2	1	1	1	2	0
2145361887
4294959103
2	2	3	4	3	3	3	1	1	-1	-2	-1	-2	-1	-2	1	2	2	2	1	1	1	1	-1	-1	-2	-3	-3	-4	-4	-4	-4	-3	-4	-4	-3	-4	-5	-4	-5	-5	-4	-3	-3	-1	2	3	2	3	3	2	3	2	3	3	2	2	2	-17
4282441725
4292347069
-17	2	2	2	3	2	2	1	1	-1	-1	-1	-2	-2	-2	-3	-4	-3	-3	-2	-2	-1	2	4	6	7	7	6	5	4	1	1	-1	-1	-1	-1	-1	-1	-1	-1	-1	-1	4
3502239743
3944215010
4	-1	-1	-1	-1	-1	-1	-2	-3	-3	-2	-2	-1	2	3	4	3	4	2	2	2	1	1	1	-1	-1	-1	-1	1	1	1	-1	-1	-1	-2	-1	-1	-1	-1	-1	-1	-2	-1	-1	-8
4294956840
131116015
-8	-2	-2	-3	-2	-3	-1	-1	1	3	4	5	6	4	4	2	2	1	-1	-1	-1	-1	1	1	-1	-1	-1	-1	-2	-1	-1	-1	-1	-1	-1	-1	-1	-2	-1	1	2	2	-2
4243626109
1988034559
-2	3	2	2	2	1	-2	-1	-2	-1	-1	-1	1	-1	-2	-1	-1	-1	-1	-1	-1	-1	-1	-1	-1	-1	-1	-1	-1	-1	1	3	4	5	5	4	3	2	1	1	-1	-2	-2	-2	-2	-1	1
3959422971
4290770943
1	-1	-1	-1	-1	-1	-1	-2	-1	-1	-2	-2	-2	-2	-3	-3	-3	-3	-2	-3	-3	-3	-4	-4	-4	-3	-2	4	8	9	11	10	8	5	1	-1	-2	-3	4	9	14	16	17	15	12	7	3	1	-1	-1	-1	-1	-3	-6	-8	-11	-13	-14	-13	8
4293918250
3210739199
8	-9	-7	-5	-5	-5	-5	-4	-4	-3	-2	2	4	5	7	6	6	4	4	2	2	1	-1	-1	-1	-1	1	1	1	1	1	1	-1	-1	-2	-2	-2	-3	-2	-3	-3	-3	-2	-1	1	3	5	5	6	5	4	4	3	18
4210884607
4294967263
18	1	2	1	1	1	1	1	2	2	2	2	-1	-1	-2	-1	-3	-2	-4	-4	-4	-4	-5	-4	-3	-3	-1	-1	1	2	2	3	4	3	3	2	1	-2	-4	-5	-7	-7	-7	-7	-6	-6	-5	-4	-4	-3	-3	-2	-2	-1	1	2	3	2	1	-54
2986309119
4294950905
-54	-1	-1	1	3	3	5	6	6	5	3	2	-1	-1	-2	-1	1	1	2	3	4	4	4	4	3	3	1	1	-1	-1	-1	-1	-2	-1	-3	-2	-4	-4	-4	-4	-3	-2	3	5	8	8	9	8	7	7	4	4	2	-1	34
3942645695
4260528127
34	-1	-1	-1	-1	-1	-1	-2	-2	-3	-3	-4	-3	-4	-3	-5	-4	-6	-5	-6	-4	-3	3	5	7	8	9	9	7	5	5	3	2	1	-1	-2	-2	-2	-2	1	-1	-1	-2	-2	-3	-2	-3	-3	-3	-3	-5	-4	-6	-5	-6	-26
4294834191
4294967166
-26	-3	-2	2	4	7	8	9	9	8	6	5	3	1	-1	-1	-2	-1	-2	-1	-1	-2	-2	-3	-3	-3	-3	-3	-3	-3	-4	-4	-5	-4	-4	-3	-1	1	4	6	8	10	9	9	7	5	4	1	-1	-3	-3	-2	-2	-2	24
4261412863
4294967295
24	1	2	2	1	1	-1	-1	-2	-3	-2	-3	-3	-2	-2	-2	-3	-3	-3	-5	-4	-2	-2	2	4	6	7	8	7	6	5	3	3	1	-1	-1	-3	-3	-3	-2	-2	-2	-1	-1	-1	-2	-1	-2	-1	-2	-2	-2	-3	-3	-3	-3	-4	-2	-3	-3	-3	-3	-5	-31
4160718887
4294966783
-31	-4	-4	-2	2	4	7	7	9	8	8	6	5	3	2	2	-1	1	-1	-1	-1	-1	-1	-2	-2	-2	-2	-3	-2	-3	-3	-2	-3	-2	-3	-2	-2	-3	-4	-4	-3	-3	-2	3	5	6	8	8	7	7	5	4	19
3743219711
4286578676
19	1	-1	-1	-1	-1	-1	1	1	1	-1	-2	-1	-2	-2	-2	-1	-2	-3	-2	-2	-2	-3	-2	-2	-2	-2	-3	-3	-2	-3	-2	-3	-1	2	4	5	7	7	7	6	5	4	2	1	-1	-2	-3	-2	-2	-1	-1	-1	-1	4
2818572159
4215726079
4	-1	-1	-2	-2	-2	-3	-3	-2	-2	-2	-1	-1	-1	-1	-2	-2	-2	-3	-2	-1	2	4	5	5	7	6	5	4	3	3	1	1	-1	-1	-1	1	1	1	-1	-1	-2	-2	-2	-3	-2	-2	-2	-2	-2	-2	-1	-2	-14
4294958980
3221225463
-14	-2	-3	-2	-3	-1	-1	1	3	5	5	5	5	5	4	2	2	1	-1	-2	-1	-2	-2	-1	1	-1	-1	-1	-1	-1	-2	-1	-2	-2	-1	-2	-2	-3	-2	-2	-1	1	1	3	4	5	5	4	3	3	2	1	-1	-1	-2	5
4045406207
4227514367
5	-2	-2	-1	1	-1	-1	-1	-1	-2	-1	-2	-2	-2	-2	-3	-3	-3	-3	-1	1	3	4	6	6	6	6	5	4	3	1	-1	-2	-3	-2	-1	-1	-1	-1	-1	-1	-1	-1	-2	-2	-2	-2	-2	-2	-3	-2	-4	-3	-2	-25
4294435103
4290772978
-25	1	2	4	5	6	6	6	5	4	2	2	-1	-1	-2	-2	-1	-1	1	-1	-1	-2	-1	-2	-2	-3	-3	-3	-4	-3	-4	-3	-2	2	3	5	6	6	5	5	3	1	1	-1	-1	-2	-2	-1	-1	-1	-1	1	6
3758071799
3354392567
6	-1	-1	-2	-1	-3	-2	-3	-2	-2	-2	-1	-2	-1	-2	-1	3	3	5	6	6	5	4	3	2	-1	-1	-2	-1	-2	1	2	1	2	1	1	-1	-1	-2	-1	-2	-1	-1	-1	-1	-1	-1	-2	-1	-2	-1	1	2	3	9
4160511999
4160634191
9	3	3	2	-1	-2	-3	-2	-3	-2	-2	-1	-1	1	1	-1	-1	-2	-2	-2	-2	-3	-2	-3	-2	-3	-2	-2	-2	-2	-2	1	2	4	5	5	6	5	4	3	2	-1	-1	-1	-1	1	1	-1	-1	-2	-2	-4
4294705119
3368026047
-4	-3	-2	-3	-2	-2	-2	-2	-2	-3	-2	-2	-2	1	3	4	6	6	7	7	5	5	4	2	1	-2	-2	-2	-1	-1	-1	-1	-1	-1	-2	-2	-3	-2	-2	-2	-2	-1	-2	-1	-2	-3	-2	-1	-1	1	3	4	5	5	5	8
4227387391
4294704615
8	4	3	2	1	-1	-2	-2	-2	-1	-2	-1	1	1	-1	-1	-1	-2	-1	-1	-1	-1	-2	-2	-3	-3	-3	-2	-1	-1	1	2	4	4	5	5	4	2	2	-1	-2	-2	-3	-2	-3	-2	-1	1	1	1	1	-1	-1	-2	-6
4294967166
83881981
-6	-2	-2	-1	-2	-1	-2	-2	-1	-2	-1	-1	1	1	3	4	4	4	4	4	2	2	2	1	-1	-2	-1	-2	-2	-1	-1	-1	-1	-1	-2	-2	-2	-1	-2	-2	-2	-1	1	2	4	3	5	4	3	3	3	1	-1	8
4240441327
4294967295
8	-2	-2	-2	-1	-1	-1	-1	-1	-1	-2	-2	-1	-2	-1	-1	-1	-1	-2	-1	-3	-2	-2	-1	2	2	3	4	3	3	2	1	1	-1	-1	-3	-3	-3	-3	-3	-3	-2	-3	-2	-2	-3	-2	-4	-4	-6	-6	-5	-4	-2	1	3	4	3	1	1	-56
4294967295
4294180863
-56	5	10	15	22	27	33	36	35	31	24	13	1	-8	-14	-18	-19	-19	-17	-16	-14	-10	-6	-3	-2	-1	-3	-5	-7	-7	-7	-5	-6	-4	-5	-6	-5	-7	-6	-5	-5	-3	-2	-1	-1	-2	-2	-4	-4	-4	-3	-1	1	3	5	8	9	9	9	7	6	4	1
4294967295
2147483647
1	-1	-3	-5	-6	-6	-4	-2	1	3	4	4	4	2	1	-1	-2	-4	-6	-7	-8	-9	-9	-8	-9	-7	-7	-7	-6	-5	-3	-2	1	2	4	4	6	8	10	10	10	11	10	10	9	8	6	3	1	-1	-3	-4	-6	-7	-8	-9	-7	-4	-2	3	8	10	12	1
4288667647
4026400767
1	12	11	9	8	5	3	2	1	1	1	2	1	2	1	1	-2	-2	-3	-4	-3	-3	-3	-4	-3	-4	-4	-5	-6	-5	-4	-2	4	6	10	11	12	11	10	7	6	2	-2	-4	-5	-5	-5	-5	-4	-4	-4	-4	-5	-5	-5	-5	-5	-5	-4	3
4294967295
4290772991
3	-2	-2	-3	-5	-8	-9	-10	-10	-6	-1	3	9	14	15	16	13	8	2	-4	-10	-13	-16	-17	-18	-20	-20	-20	-19	-16	-7	3	13	23	28	31	30	26	21	15	8	-5	-10	-11	-9	-3	2	7	10	12	12	9	8	6	2	1	-2	-4	-6	-8	-8	-9	-8	26
4022337535
4278714367
26	-4	-1	2	1	1	1	1	-1	-1	-2	-2	-4	-3	-5	-5	-5	-5	-4	-2	1	5	6	9	9	9	8	6	4	2	1	-1	-3	-3	-4	-3	-3	-2	-2	-1	-3	-2	-3	-2	-3	-4	-4	-5	-5	-6	-4	-4	-1	1	4	6	8	8
4261232639
4294703679
8	8	7	5	3	2	-1	-3	-2	-3	-3	-1	-1	1	-1	-1	-2	-2	-2	-2	-2	-2	-3	-3	-4	-4	-5	-4	-4	-3	-1	2	4	6	7	9	7	7	5	3	1	-2	-2	-3	-2	-2	-1	-1	1	-1	-1	-2	-1	-3	-2	1
4294966271
2281700863
1	-2	-3	-2	-3	-3	-3	-3	-3	-3	-2	-1	2	4	6	7	7	7	5	4	2	-1	-2	-3	-3	-3	-1	-1	1	1	1	1	-1	-1	-1	-2	-2	-2	-2	-2	-2	-1	-2	-2	-2	-4	-3	-3	-2	3	6	6	7	7	6	5	3	1	17
4293394239
4292850703
17	-1	-3	-3	-4	-3	-2	-2	-2	-1	-1	-1	-1	-1	-2	-2	-3	-2	-3	-2	-2	-1	-1	-2	-2	-3	-3	-1	2	4	7	8	10	9	7	6	3	1	-1	-2	-3	-2	-1	-1	1	1	1	-1	-1	-1	-2	6
4294965236
4294965247
6	-2	-2	-2	-3	-3	-4	-3	-2	-1	1	3	5	6	6	6	6	4	3	1	-1	-2	-2	-2	-3	-1	-1	-1	-1	-2	-3	-3	-4	-4	-4	-4	-3	-3	-3	-3	-3	-3	-3	-4	-3	-3	-3	-1	3	5	7	8	7	7	5	4	3	2	1	4
3691184127
4227698175
4	-1	-1	-1	-1	-1	-1	-1	-1	-2	-3	-2	-3	-3	-3	-2	-2	-1	1	3	4	6	6	6	4	3	1	-1	-2	-3	-3	-4	-3	-2	-2	1	1	-1	-1	-1	-1	-1	-2	-3	-3	-3	-4	-3	-33
3221224375
4278190079
-33	3	5	6	8	8	7	7	5	3	3	1	-1	-1	-2	-2	-1	-1	-1	-1	-1	-1	-1	-1	-1	-1	-2	-1	-3	-3	-4	-4	-5	-4	-2	3	6	8	9	8	7	6	3	2	1	-1	-2	-2	-3	-3	-3	-2	-3	-1	-2	-3	-2	-2	-2	0
2147483647
4227588094
-1	-1	-1	-1	-2	-3	-4	-3	-4	-2	-2	1	4	6	8	9	11	9	9	6	4	1	-2	-4	-6	-8	-9	-10	-8	-9	-7	-6	-5	-4	-3	-2	1	2	3	4	3	1	1	-1	-1	-2	-1	1	4	5	7	8	7	6	6	4	3	2	1	24
4275044351
4227473407
24	-2	-2	-2	-1	-1	1	1	1	-2	-2	-3	-3	-3	-3	-3	-3	-3	-3	-4	-4	-4	-3	-2	1	3	5	7	8	7	6	5	3	2	-1	-3	-2	-2	-2	-1	-1	1	-1	-1	-2	-2	-2	-3	-2	-3	-2	-3	-3	-3	-3	-23
4294834117
4294967247
-23	-3	-2	-1	2	3	6	7	8	6	6	4	2	1	-1	-2	-2	-2	-1	1	1	2	1	1	-1	-1	-2	-2	-3	-3	-3	-3	-1	-2	-1	-1	-2	-3	-3	-3	-3	-2	-1	2	4	6	7	7	6	4	4	2	-1	-2	-2	-3	6
4278190079
4290720031
6	-1	1	1	1	1	1	-1	-1	-1	-1	-1	-1	-1	-2	-2	-2	-2	-2	-2	-1	-2	-1	-1	-2	-2	-2	-2	-3	-1	1	3	4	7	7	7	6	4	2	1	-1	-2	-2	-2	-2	-2	1	1	-1	-1	-1	-3	-2	-3	-7
4294443003
4060086143
-7	-2	-1	-1	-1	-1	-2	-2	-2	-3	-1	-1	3	3	5	6	7	5	4	3	1	-1	-1	-3	-3	-3	-2	-1	1	1	2	2	1	1	-1	-1	-1	-2	-2	-2	-2	-2	-2	-2	-1	-2	-1	-1	-1	-2	-1	2	3	4	6	6	5	4	14
4291778559
4294835571
14	1	1	-1	-2	-3	-3	-3	-2	-1	2	1	1	1	1	-1	-2	-1	-2	-1	-2	-2	-2	-2	-3	-3	-4	-4	-4	-2	-1	2	4	5	6	7	6	5	4	2	1	-1	-2	-3	-2	-2	-1	-1	1	1	1	1	-1	-1	2
4294836095
2290089983
2	-2	-2	-2	-2	-1	-2	-2	-1	-3	-2	-3	-2	-1	2	4	6	6	6	5	4	2	1	-2	-1	-2	-2	-2	-2	-1	-1	1	-1	-1	-2	-1	-2	-2	-1	-2	-2	-3	-3	-3	-3	-1	1	3	5	6	6	6	5	3	3	13
3216867323
4294924799
13	-2	-2	-3	-3	-3	-2	-1	1	1	2	1	-1	-2	-1	-1	-2	-1	-3	-3	-3	-4	-3	-3	-2	1	4	5	7	7	6	5	4	2	1	-1	-1	-2	-3	-3	-3	-2	-1	1	1	-1	-1	-1	-1	-1	-1	-2	-3	-3	-4	-21
4026268127
4282380256
-21	-3	-2	2	4	7	7	7	7	5	3	2	-1	-2	-2	-3	-2	-2	-1	1	1	1	-1	-1	-1	-1	-1	-2	-3	-2	-4	-3	-3	-3	-3	3	5	7	7	8	6	5	2	2	-1	-2	-3	-3	-3	-2	-1	9
3221159871
4242537468
9	-1	-1	-1	-1	-1	-2	-2	-3	-3	-3	-4	-3	-1	2	5	5	6	6	5	3	2	1	-1	-2	-3	-3	-3	-2	-1	1	1	1	1	1	-1	-1	-1	-2	-1	-2	-2	-3	-3	-4	-3	-2	3	4	5	6	6	4	3	2	14
4276084703
4294084607
14	-2	-3	-3	-2	-2	-1	1	1	-1	-1	-2	-1	-1	-1	-1	-2	-2	-3	-3	-3	-3	-2	3	4	6	6	6	6	4	3	2	1	-1	-2	-3	-3	-3	-2	-1	1	1	-1	-2	-3	-3	-3	-4	-3	-3	-1	-1	2	-13
4282268671
4294967295
-13	5	6	5	5	4	2	2	-1	-2	-2	-2	-2	1	1	1	-1	-2	-1	-2	-2	-2	-2	-3	-3	-3	-4	-3	-2	-2	1	2	4	5	6	6	6	3	2	1	-1	-3	-2	-3	-2	-2	1	1	3	3	3	1	1	-1	-2	-3	-3	-2	1
4293391359
2684346351
1	-2	-1	-1	-2	-1	-1	-2	-1	-2	-1	3	3	4	5	4	3	3	-1	-1	-2	-2	-1	-1	-1	1	1	1	1	-1	-1	-1	-2	-1	-2	-1	-2	-2	-1	-3	-2	-3	-1	-1	3	5	5	6	5	4	3	1	-1	-1	-2	-3	6
3943694271
4020150271
6	-1	-1	1	1	1	-1	-1	-2	-1	-2	-2	-1	-2	-2	-3	-3	-2	-2	1	3	4	5	5	4	4	2	1	-2	-2	-2	-2	-2	1	1	1	1	1	-1	-1	-2	-2	-1	-2	-2	-2	-2	-2	-2	-2	-3	-19
3756258623
4290768889
-19	-1	2	4	5	5	5	4	3	2	-1	-2	-2	-2	-1	-1	1	1	-1	-1	-2	-2	-1	-2	-1	-1	-2	-2	-2	-2	-3	-2	-1	3	4	6	6	6	4	4	2	1	-1	-2	-2	-2	-2	-2	-1	-1	1	1	2
4290772991
4282384383
2	-1	-1	-2	-1	-2	-1	-1	-1	-2	-1	-3	-3	-3	-2	-1	2	3	5	6	6	5	4	3	2	1	-2	-2	-4	-4	-3	-3	-1	-1	1	2	1	1	1	-1	-1	-1	-1	-2	-1	-2	-1	-3	-2	-2	-2	-1	2	4	5	6	7	6	4	4	1	20
4294705147
4294927871
20	-1	-2	-3	-3	-4	-3	-2	-1	1	1	1	2	1	-1	-1	-1	-1	-2	-1	-2	-2	-2	-3	-2	-3	-2	-1	2	4	6	6	6	6	3	2	1	-1	-1	-3	-3	-2	-3	-1	-1	1	1	1	-1	-1	-1	-1	-1	-2	-3	-2	-3	-3	-14
4026268839
4290772991
-14	-2	-2	3	3	6	5	6	5	4	2	2	-2	-2	-2	-3	-2	-2	-1	-1	1	1	-1	-1	-1	-2	-1	-3	-2	-3	-3	-3	-2	-1	2	4	4	6	5	5	4	2	1	-1	-2	-3	-3	-3	-3	-2	-1	1	1	2	2	1	4
3221225087
4278188031
4	-1	-1	-1	-1	-2	-1	-3	-3	-3	-4	-3	-1	1	2	5	6	7	7	5	3	2	-1	-1	-1	-1	-1	-2	-1	1	2	3	4	5	3	3	-1	-3	-3	-3	-1	2	8	13	16	15	12	5	-5	-8	-11	-12	-15	-19	-20	-19	-17	-13	-8	-61
4294963191
4294901758
-61	-4	-3	-2	-1	-1	2	2	3	5	6	10	12	15	16	16	13	9	5	-4	-5	-4	-3	-2	1	2	1	-3	-7	-12	-15	-17	-16	-11	-5	1	5	8	7	6	3	2	1	1	-1	2	3	6	8	9	7	5	2	-2	-5	-6	-6	-5	-3	-1	-9
4294942711
4289978367
-9	2	2	2	1	-1	-2	-2	-4	-4	-4	-3	-2	-1	1	1	1	-1	-2	-2	-2	-1	-2	-2	-2	-1	2	4	5	7	8	7	7	6	4	3	2	1	-1	-1	1	1	2	1	-1	-2	-2	-2	-3	-3	-3	-4	-3	-4	-3	-4	-3	-18
4294698815
4294950861
-18	-2	-1	1	2	4	5	5	5	4	3	2	1	-1	-1	-2	-1	-1	1	1	1	-1	-1	-2	-1	-1	-1	-1	-2	-1	-3	-2	-3	-2	-1	1	3	5	5	6	6	4	4	1	-2	-3	-3	-4	-3	-2	-1	1	1	-1	-1	2
3221224958
1677688831
2	-1	-1	-1	-2	-2	-3	-3	-3	-2	-1	1	2	4	6	6	5	6	4	3	1	-2	-3	-3	-4	-3	-2	-1	-1	1	1	-1	-1	-1	-2	-2	-3	-2	-3	-3	-2	1	3	5	5	5	5	3	3	1	-1	-1	-3	-3	-3	-2	-0
1243607039
4177788414
-1	1	1	-1	-1	-1	-3	-3	-3	-2	-2	1	2	4	5	4	4	4	3	1	1	-1	-2	-3	-3	-2	-2	-1	1	-1	-2	-2	-3	-4	-3	-2	-1	2	3	5	6	6	4	4	2	14
4278583231
4025581567
14	-2	-2	-3	-3	-2	-1	-1	-1	-1	-1	-1	-1	-2	-2	-2	-3	-3	-1	3	4	6	6	6	5	4	3	1	-2	-3	-3	-3	-2	-2	-1	-1	-1	-1	-1	-1	-1	-1	-1	-3	-3	-3	-4	-2	-1	1	3	5	-5
4261326847
3220170559
-5	7	6	5	4	2	-1	-2	-3	-2	-3	-2	-1	-1	1	1	-1	-1	-1	-1	-1	-2	-1	-2	-3	-3	-3	-3	-3	2	4	5	6	6	5	4	3	1	-1	-3	-3	-3	-3	-2	-1	1	1	1	-1	-1	-1	-2	-1	-1	-5
4294967261
2147483646
-5	-2	-2	-2	-3	-3	-2	-1	1	3	5	6	7	7	4	3	2	-1	-1	-2	-3	-3	-3	-3	-1	-1	1	2	1	-1	-1	-1	-1	-1	-1	-2	-2	-3	-3	-3	-3	-1	-1	2	4	5	7	6	6	4	2	1	-1	-2	-2	-3	-4	-3	-2	-1	-0
1912602619
4179099583
1	1	1	-1	-2	-1	-2	-2	-2	-1	-3	-2	-3	-3	-2	-1	2	3	6	6	7	6	5	3	1	-2	-2	-3	-3	-2	-2	-1	1	-1	-1	-2	-1	-1	-2	-2	-2	-3	-3	-3	-3	-3	1	3	5	7	7	7	11
4294418431
3221219263
11	5	2	2	-1	-1	-3	-4	-3	-4	-2	-1	1	1	1	1	-1	-1	-1	-2	-1	-2	-1	-2	-2	-3	-3	-2	-3	-1	2	4	6	6	6	6	4	2	1	-1	-1	-3	-2	-3	-2	-2	-1	1	1	1	1	-1	-1	-1	-1	-2	-2	-3
4286570446
1073676287
-3	-2	-3	-2	-3	-3	-2	-2	2	3	5	6	6	5	5	3	1	-1	-3	-3	-3	-3	-2	-1	1	2	1	-1	-1	-1	-1	-1	-2	-1	-3	-2	-3	-3	-3	-1	1	4	5	6	6	6	4	2	1	-1	-2	-2	-3	-4	-3	-2	-2
3158308861
4257742847
-2	1	1	1	1	-1	-1	-2	-2	-3	-2	-4	-3	-3	-2	1	4	4	6	6	6	4	3	1	-2	-2	-4	-3	-3	-2	-1	1	1	1	-1	-2	-1	-2	-1	-2	-3	-3	-4	-4	-4	-1	1	3	6	7	7	7	5	13
4025450491
4278187007
13	2	2	-2	-3	-3	-4	-3	-2	-1	1	1	1	-1	-1	-1	-1	-1	-2	-3	-3	-4	-4	-4	-4	-2	2	5	7	8	8	7	6	3	2	-1	-2	-2	-3	-3	-2	-1	-1	1	2	1	2	-1	-1	-2	-1	-2	-2	-2	-3	-4	-3	-15
4294703007
4292870131
-15	-3	-1	1	3	6	6	7	7	5	4	3	1	-2	-2	-4	-3	-2	-1	1	1	2	1	-1	-2	-2	-2	-2	-3	-2	-2	-1	-2	-3	-3	-4	-3	-3	2	5	6	8	7	7	5	3	2	-1	-1	-2	-3	-3	-3	-1	-1	1	1	13
2281701375
4194041853
13	-1	-2	-2	-3	-2	-3	-2	-2	-1	-2	-2	-2	-3	-3	-1	-1	2	4	6	6	7	6	4	2	1	-1	-2	-2	-3	-2	-2	-2	1	1	1	1	1	-1	-1	-1	-2	-1	-1	-2	-1	-2	-2	-2	-2	-2	-2	-3	-2	-1	3	-11
4278123519
4294934460
-11	5	6	6	4	4	2	-1	-1	-3	-2	-2	-1	-2	1	1	1	1	1	-1	-1	-2	-1	-2	-2	-2	-2	-3	-2	-2	-2	-2	-2	-2	-2	-2	1	2	5	6	7	7	5	4	2	-1	-1	-2	-3	-2	-3	-2	-1	1	1	1	1	5
4294934479
4294967231
5	-1	-1	-2	-1	-2	-2	-1	-2	-1	-2	-2	-2	-2	-2	-1	2	4	5	6	7	6	5	3	2	-2	-2	-1	-1	-1	1	1	1	1	2	1	2	1	2	1	1	-1	-3	-5	-9	-10	-12	-12	-11	-9	-8	-6	-4	-3	3	5	8	10	10	9	-11
4244635647
4294868095
-11	8	5	4	3	1	-1	-1	1	1	2	3	3	2	1	-1	-1	-2	-2	-2	-3	-2	-3	-3	-2	-2	-1	-2	-2	-2	-3	-3	-3	-3	-3	-2	-1	1	3	5	6	6	6	4	3	-2	-3	-2	-2	-2	1	2	1	1	2	1	1	6
2684321791
4286578623
6	-1	-1	-1	-1	-1	-2	-2	-2	-2	-2	-2	-1	-1	1	3	4	5	5	4	4	2	1	-1	-1	-2	-3	-3	-3	-3	-1	-1	1	1	1	2	1	-1	-1	-1	-2	-2	-2	-1	-2	-2	-2	-2	-2	-3	-3	-3	-1	3	5	7	7	8	6	14
4026359807
4294438991
14	3	2	-1	-2	-2	-3	-2	-2	-3	-1	-1	-1	1	1	-1	-2	-2	-2	-3	-1	-2	-2	-2	-3	-2	-3	-3	-2	-2	1	2	4	7	7	8	7	5	3	2	-1	-2	-2	-2	-2	-2	-1	-1	-1	-1	-1	-1	-2
4294966270
3355443198
-2	-2	-2	-2	-2	-2	-2	-3	-3	-2	-2	-1	1	4	5	8	8	7	6	4	2	-1	-2	-3	-3	-3	-2	-1	-1	1	1	1	-1	-1	-2	-2	-3	-3	-2	-2	-2	-2	-2	-3	-3	-4	-3	-2	1	2	6	7	8	8	6	5	4	2	19
4290510847
4278149631
19	-2	-2	-3	-3	-2	-1	-1	1	1	1	1	-1	-1	-2	-2	-3	-2	-1	-2	-2	-2	-2	-4	-3	-4	-2	-2	1	4	5	8	9	8	6	4	2	-1	-2	-2	-2	-2	-2	-1	-1	1	1	-1	-1	-2	-3	-3	-3	-3	-3	-1	-12
4286566280
1610612732
-12	-1	-2	-3	-4	-3	-3	-2	4	5	8	8	8	7	6	4	2	-2	-1	-2	-2	-2	1	-1	-2	-2	-3	-3	-3	-2	-2	-2	-2	-1	-2	-2	-3	-3	-4	-3	-2	1	3	5	7	8	8	6	5	3	2	19
4182245375
4294832967
19	-1	-1	-2	-1	1	1	-1	-1	-2	-1	-2	-2	-2	-2	-2	-2	-2	-1	-2	-1	-1	-2	-1	-2	-2	-3	-3	-2	-1	1	3	5	6	8	7	6	4	3	2	-1	-2	-2	-1	-2	1	1	1	-1	-1	-1	12
4294967231
4294418431
12	-1	-2	-2	-1	-2	-1	-1	-1	-1	-1	-1	-2	-1	-2	-1	-2	-1	-1	-1	-2	-3	-3	-3	-2	3	4	6	7	7	5	5	3	1	1	-1	-2	-2	-2	-1	-1	-1	1	1	1	1	1	-1	-1	-2	-2	-1	-2	-1	-1	-1	-2	-1	-1	-1	-7
3891265531
3824282623
-7	-1	-1	-1	-1	-1	-2	-1	-2	2	3	4	6	5	5	4	3	2	-1	-1	-2	-3	-3	-3	-1	-1	2	1	1	2	1	-1	-1	-1	-1	-1	-1	-1	-1	-1	-1	-1	-1	-1	-2	-1	-2	-1	-2	-1	-1	-2	-17
4294950847
2147481599
-17	-2	-2	-2	-2	-1	-1	1	3	4	6	7	6	6	4	2	1	-1	-2	-3	-2	-2	-1	1	2	1	1	1	1	1	-1	-1	-1	-1	-1	-2	-1	-1	-1	-1	-1	-1	-1	-1	-2	-1	-1	-1	-1	-1	-1	-1	-1	-2	-2	-3	-1	-1	2	3	-14
4269701247
3755982831
-14	6	6	6	4	3	2	-1	-2	-2	-2	-2	-1	1	1	2	1	-1	-1	-2	-2	-2	-2	-1	-1	-1	-1	-1	-1	-1	-1	-1	-1	-1	-2	-2	-2	-2	-1	3	4	6	6	5	5	3	1	1	-1	-2	-2	-2	3
3733979119
4293912575
3	-1	1	1	1	1	1	-2	-1	-1	-2	-1	-1	-2	-1	-2	-1	-1	-1	-1	-1	-1	-2	-1	-2	-2	-2	-1	1	2	5	5	6	6	4	4	2	-1	-1	-3	-2	-2	-2	-1	1	2	2	1	1	1	-1	-1	-1	-1	-1	3
4294934527
3726114811
3	-2	-1	-2	-2	-1	-1	-1	-1	-1	-1	-2	-2	-3	-2	-1	1	3	4	5	6	5	4	3	2	1	-1	-1	-2	-2	-3	-1	-1	1	1	1	1	-1	-2	-1	-3	-2	-3	-2	-1	-1	-1	-1	-2	-1	-1	-2	-2	-2	1	4	-11
4294965759
4290768893
-11	5	6	6	4	3	2	1	-1	-2	-2	-3	-2	-1	-1	1	1	1	1	1	1	-1	-1	-1	-3	-2	-3	-3	-2	-2	-1	-1	-1	-1	-3	-3	-3	-2	-1	3	5	7	7	6	6	4	3	2	-2	-2	-2	-3	-2	-1	-1	1	1	1	1	10
3489659903
2129919999
10	-1	-1	-2	-2	-2	-3	-3	-2	-1	-2	-1	-1	-2	-2	-3	-2	-2	-1	3	4	5	7	6	6	4	3	2	2	-1	-1	-1	-2	-1	-1	1	2	1	1	-1	-1	-1	-1	-1	-2	-2	-3	-2	-3	-2	-3	-1	-1	-1	-1	-1	-2	-14
4294900972
4294967295
-14	-3	-2	-2	-2	1	2	5	6	7	7	6	4	2	1	-1	-2	-1	-2	-1	-1	1	1	2	1	-1	-1	-1	-1	-1	-2	-2	-2	-1	-2	-1	-1	-2	-1	-2	-1	-2	-1	-2	-2	-3	-2	-2	-1	1	3	5	6	6	6	5	4	2	16
3195633663
4286578495
16	-2	-2	-2	-2	-1	1	1	2	1	-1	-1	-1	-1	-1	-2	-1	-1	-2	-1	-1	-1	-1	-2	-1	-1	-1	-2	-1	-2	-3	-2	-3	-1	2	4	5	5	5	5	4	2	1	1	-1	-2	-1	-2	-2	2	2	2	1	1	1	13
4294967295
3489480703
13	-1	-1	-1	-2	-1	-2	-2	-2	-2	-2	-2	-2	-2	-1	-1	-1	-1	-1	-2	-2	-2	-2	-1	1	2	4	5	6	6	5	4	2	2	-1	-2	-2	-1	-1	-1	1	1	1	1	1	-1	-1	-1	-2	-2	-2	-1	-2	-1	-1	-1	-1	-1	-2	-8
4292867059
3623870459
-8	-1	-1	-1	-2	-2	-3	-3	-3	-2	1	4	6	6	7	6	5	4	2	-1	-2	-2	-1	-1	-1	1	1	1	1	1	-1	-1	-2	-2	-2	-2	-2	-1	-2	-1	-2	-1	-1	-1	-1	-1	-1	-1	-2	-2	-3	-2	-1	1	4	-13
4269800191
4127063999
-13	6	6	6	5	3	2	-2	-2	-2	-2	-1	-1	1	1	1	2	1	1	-1	-1	-2	-1	-2	-2	-2	-2	-3	-2	-1	-2	-1	-1	-1	-1	-2	-2	-2	-2	-2	1	3	4	6	6	6	5	3	2	1	-1	-2	-2	-2	-2	-1	3
4277137407
4278189055
3	1	2	1	1	1	-1	-1	-1	-1	-1	-2	-2	-2	-2	-1	-1	-1	-1	-1	-2	-2	-3	-3	-2	-2	1	2	4	5	6	6	4	4	2	1	-1	-1	-2	-2	-1	-1	1	1	1	2	1	1	-1	-1	-1	-1	-1	-2	-1	-2	-3	-2	-2	-8
4294966775
3690987487
-8	-1	-1	-1	-1	-2	-1	-3	-3	-3	-3	-1	1	3	5	6	7	6	6	5	2	2	-1	-2	-2	-1	-2	1	1	1	1	1	1	-1	-1	-1	-1	-2	-2	-3	-2	-2	-2	-2	-2	-1	-2	-1	-2	-2	-3	-2	-2	-1	2	3	5	7	6	5
4226267135
4290766815
5	5	4	2	1	-2	-1	-2	-2	-1	1	2	1	1	1	-1	-1	-2	-2	-1	-2	-2	-2	-2	-2	-1	-2	-1	-1	-2	-2	-2	-3	-3	-2	-2	1	4	5	7	6	6	5	4	2	-2	-2	-2	-2	-1	1	1	1	1	1	13
3221225471
3885981695
13	-1	-1	-1	-2	-1	-2	-2	-2	-2	-2	-1	-1	-1	-1	-1	-2	-1	-2	-3	-2	-3	-2	-1	1	3	5	5	7	5	5	4	2	1	-1	-2	-1	-2	1	2	1	1	1	-1	-2	-1	-2	-2	-2	-2	-2	-2	-2	-2	-2	-1	-1	-11
4290768798
805306367
-11	-1	-1	-2	-2	-3	-3	-2	-1	4	5	7	7	7	5	4	2	2	-1	-1	-2	-2	-1	1	1	1	1	-1	-1	-1	-2	-2	-2	-2	-2	-2	-1	-2	-1	-1	-1	-1	-2	-1	-3	-2	-2	-3	-1	-1	2	4	5	6	6	5	9
4290711551
4292868079
9	3	1	1	-1	-1	-1	-1	-2	-1	1	2	1	2	1	-1	-2	-1	-2	-2	-2	-2	-2	-2	-1	-2	-1	-1	-1	-1	-2	-1	-3	-3	-3	-3	-1	2	4	6	7	6	5	4	3	1	-1	-1	-2	-2	-2	-1	1	1	2	1	10
2281701247
3483277303
10	-1	-1	-2	-1	-2	-2	-2	-2	-1	-2	-1	-1	-2	-2	-1	-3	-2	-2	-2	1	3	5	5	5	5	4	3	2	-1	-1	-1	-2	-1	1	2	1	1	-1	-1	-2	-2	-2	-2	-2	-2	-1	-1	-1	-1	-10
4294950133
3221094399
-10	-2	-3	-3	-3	-2	-1	1	4	5	6	6	5	4	2	1	1	-1	-1	-1	-1	1	1	1	2	1	-1	-1	-1	-1	-2	-1	-2	-2	-2	-2	-2	-1	-1	-1	-1	-1	-3	-3	-3	-4	-2	-1	2	4	6	6	6	5	4	3	2	13
3204317179
4278165292
13	-1	-1	-2	-1	-1	1	1	2	2	1	1	-1	-1	-1	-2	-1	-2	-1	-2	-1	-2	-2	-1	-2	-1	-1	-1	-2	-2	-2	-2	-3	-2	-1	1	3	5	6	6	5	4	3	1	-1	-2	-1	-1	-1	1	1	1	10
3758030847
4293860350
10	-1	-1	-1	-2	-1	-1	-2	-1	-1	-1	-1	-2	-1	-1	-1	-1	-2	-2	-2	-3	-2	-1	1	3	4	6	5	6	5	3	2	1	-1	-1	-2	-2	-3	-1	-1	-1	1	2	1	1	-1	-1	-1	-1	-1	-2	-1	-2	-1	-2	-1	-7
4294964199
268414975
-7	-1	-1	-1	-2	-1	-2	-3	-2	-1	1	2	4	5	5	5	5	3	1	1	-2	-1	-2	-1	-1	1	1	1	-1	-1	-1	-1	-2	-1	-1	-2	-2	-1	-2	-1	-1	-1	-1	-2	-2	-2	-2	-1	1	3	4	5	6	5	7
4293365754
4294942623
7	2	2	1	-1	-1	-1	-3	-2	-1	-1	2	1	1	1	-1	-1	-1	-2	-2	-2	-2	-1	-1	-1	-1	-2	-1	-2	-2	-2	-1	-1	1	2	3	5	5	5	4	3	2	-1	-1	-2	-2	-2	-2	1	1	2	1	1	7
3758096382
4284022783
7	-1	-1	-1	-1	-2	-2	-3	-2	-1	-1	-1	-1	-1	-2	-2	-2	-2	-1	-1	1	2	4	5	5	5	4	4	2	1	-1	-1	-2	-2	-1	-1	-1	-1	1	1	1	-1	-2	-2	-2	-2	-2	-1	-2	-1	-1	-1	-1	-2	-1	-1	-1	-18
4291817391
4294966247
-18	2	3	5	5	6	5	4	3	1	-2	-2	-2	-2	-2	-1	-1	1	1	2	1	1	-1	-2	-2	-3	-3	-3	-3	-3	-3	-3	-4	-4	-4	-3	-3	-1	1	3	5	7	8	7	6	5	3	1	-1	-1	-1	-2	-1	1	1	1	9
2986344446
4286185471
9	1	1	-2	-2	-3	-2	-2	-2	-1	-1	-2	-2	-3	-3	-3	-3	-1	1	3	4	5	6	5	4	2	2	-1	-1	-1	-2	-2	-1	-1	1	1	1	1	1	-1	-1	-2	-2	-3	-2	-3	-2	-3	-1	-2	-1	-2	-2	-2	-2	-2	-26
4293893951
4294967291
-26	2	5	5	7	7	6	5	3	2	1	-1	-2	-1	-2	-1	1	1	1	2	1	-2	-2	-3	-2	-2	-2	-2	-1	-2	-2	-2	-2	-4	-3	-3	-3	-1	1	3	6	6	8	6	6	3	2	1	-1	-1	-2	-2	-2	-1	-1	-1	1	1	12
3489660927
4269604863
12	1	-1	-1	-2	-2	-2	-3	-2	-1	-1	-1	-1	-1	-2	-2	-3	-3	-2	-2	1	3	5	5	6	6	5	3	2	1	-1	-1	-3	-2	-2	-2	-1	1	1	1	1	1	-1	-2	-2	-3	-2	-3	-2	-3	-1	-2	-2	-1	-2	-3	-2	-2	-22
3219118655
4294967283
-22	3	4	6	6	6	5	3	2	-1	-1	-2	-2	-2	-2	-1	1	1	1	-1	-1	-1	-2	-2	-1	-2	-1	-1	-1	-1	-3	-2	-3	-1	-1	2	4	6	6	7	7	5	3	2	1	-1	-2	-3	-4	-3	-4	-3	-2	1	1	5
3758096379
4114087927
5	1	-1	-1	-2	-2	-2	-2	-2	-2	-2	-1	-2	-2	-3	-3	-2	-1	1	3	5	6	6	7	5	4	2	1	-1	-2	-1	-2	-1	-1	-1	1	1	-1	-2	-1	-2	-2	-2	-2	-2	-2	-1	-2	-2	-3	-2	-3	-2	1	2	5	-8
4294734847
4294868523
-8	7	6	5	3	1	1	-1	-1	-2	-1	-2	-1	-1	1	1	1	-1	-1	-1	-2	-2	-2	-2	-2	-2	-2	-2	-2	-3	-2	-2	-1	1	3	5	6	7	6	4	3	1	-2	-2	-2	-3	-2	-2	1	1	-1	-1	2
4294967294
822077437
2	-2	-2	-1	-2	-1	-2	-2	-2	-3	-3	-2	-2	1	2	4	6	6	6	5	4	3	1	-1	-1	-3	-2	-3	-3	-2	-1	1	1	-1	-2	-2	-2	-2	-2	-3	-3	-3	-3	-2	3	5	5	6	7	5	4	3	1	-1	14
4240965599
4294035455
14	-3	-3	-2	-3	-1	1	1	-1	-1	-1	-2	-2	-1	-2	-3	-3	-3	-4	-3	-2	1	3	5	6	7	6	5	4	2	1	-1	-1	-2	-3	-2	-2	-1	1	1	1	-1	-2	-1	-2	-2	-3	-2	-2	-3	-3	-3	-20
4026529679
4293393401
-20	-2	-1	3	5	6	7	6	5	4	2	1	-1	-1	-2	-3	-2	-2	-1	1	1	1	1	-1	-1	-1	-1	-2	-1	-1	-2	-1	-2	-3	-3	-3	-2	-3	3	4	5	6	6	5	3	2	-1	-1	-2	-3	-2	-2	-1	1	6
4093640702
4285202430
6	1	1	1	-1	-2	-2	-2	-2	-2	-2	-1	-2	-1	-2	-3	-2	-3	-1	-1	1	3	5	6	7	5	5	3	1	-1	-2	-3	-3	-2	-1	-1	1	1	1	1	-1	-1	-1	-2	-2	-2	-2	-1	-2	-1	-2	-2	-3	-3	-2	-1	-19
4294958591
4286570447
-19	4	6	7	6	5	4	2	1	-1	-1	-2	-2	-3	-2	-1	-1	1	1	1	1	-1	-1	-1	-2	-2	-1	-2	-2	-1	-1	-1	-2	-2	-3	-4	-3	-2	2	3	6	6	7	6	5	3	2	-1	-2	-2	-3	-3	-2	-1	1	1	2	1	7
3221225447
3754950655
7	-1	-2	-3	-2	-2	-2	-1	-2	-2	-1	-2	-3	-3	-2	-3	-1	1	2	5	6	6	6	4	4	2	-2	-2	-3	-2	-2	1	2	2	2	2	2	1	-1	-1	-2	-2	-2	-2	-3	-2	-2	-2	-3	-2	-3	-2	-1	1	3	4	6	5	7
4294821887
4160617955
7	4	3	2	1	-1	-1	-2	-3	-2	-2	-1	-1	1	1	1	1	-1	-1	-2	-1	-2	-2	-2	-1	-2	-2	-2	-2	-3	-2	-2	2	3	5	6	5	5	3	2	1	-1	-2	-2	-2	-2	-2	-1	1	1	1	1	-1	-1	3
4294967293
4093638655
3	-1	-2	-1	-1	-2	-2	-2	-2	-3	-3	-3	-1	1	2	4	4	6	5	4	4	1	1	-1	-2	-2	-2	-2	-1	-1	1	1	2	1	1	-1	-2	-2	-2	-2	-1	-2	-2	-1	-3	-2	-3	-3	-2	2	4	5	6	6	6	4	3	1	-1	-1	12
4190633975
4261274623
12	-3	-2	-2	-1	1	1	1	-1	-1	-2	-2	-2	-2	-2	-2	-2	-2	-3	-3	-2	-2	-2	2	3	6	6	7	6	4	3	1	-1	-2	-2	-2	-3	-2	-1	1	1	1	1	-1	-1	-2	-2	-2	-2	-2	-2	-2	-1	-13
4227759925
2145370111
-13	-2	-2	-2	-2	2	3	4	6	6	6	4	4	2	-1	-1	-2	-1	-1	-1	-1	1	1	1	-1	-2	-1	-2	-2	-2	-2	-2	-1	-1	-1	-2	-2	-2	-3	-1	1	3	5	5	5	5	4	3	1	1	-1	-1	-2	-3	8
3483892735
4278123519
8	-2	1	1	1	1	1	-1	-1	-1	-2	-1	-2	-1	-2	-1	-1	-1	-1	-2	-2	-3	-2	-1	1	2	3	5	5	4	4	3	2	-1	-2	-2	-3	-2	-2	-1	1	1	1	1	1	-1	-1	-2	-1	-2	-2	-2	-2	-1	-2	-10
4290770918
2684354551
-10	-1	-1	-1	-1	-1	-2	-2	-1	1	2	4	5	6	5	4	3	1	1	-2	-1	-2	-2	-2	-1	1	1	1	-1	-1	-1	-2	-2	-2	-2	-2	-2	-1	-2	-2	-2	-3	-2	-1	1	2	4	6	6	6	4	4	1	-1	-1	-2	5
4186439671
4192460879
5	-1	-1	-1	-1	1	1	-1	-2	-1	-2	-3	-2	-3	-2	-2	-1	-2	-1	-2	-2	-1	2	4	6	5	6	4	4	2	-1	-2	-1	-2	1	2	1	2	1	-1	-1	-2	-2	-2	-1
4294819839
4160749180
-1	-2	-2	-1	1	4	5	6	6	6	5	4	3	2	1	-1	-1	-1	-1	-1	-2	-3	-5	-6	-8	-9	-10	-10	-9	-9	-7	-5	-3	-1	1	2	2	2	2	3	2	3	4	6	6	7	7	7	5	3	3	1	-1	-1	-1	-2	-1	5
3892310011
4054843391
5	1	1	-1	-1	-1	-2	-1	-2	-1	-1	-2	-3	-2	-3	-2	-1	2	3	5	5	5	4	4	2	1	-2	-1	-3	-2	-1	-1	1	1	1	-1	-1	-1	-1	-2	-2	-3	-2	-3	-4	-3	-3	-2	-1	1	4	5	6	6	6	12
4026236927
2146409727
12	3	2	-1	-1	-3	-2	-2	-2	-1	-1	1	1	1	-1	-1	-1	-2	-2	-1	-2	-2	-2	-2	-3	-3	-2	-3	-1	2	4	6	5	6	5	4	3	2	1	-2	-2	-3	-2	-2	2	1	1	-1	-2	-2	-2	-2	-3	-2	-2	-8
4294950651
4294704893
-8	-3	-3	-3	-2	-2	-1	1	4	5	6	6	5	5	3	2	1	-1	-1	-2	-1	-2	-1	1	1	1	1	-1	-1	-1	-2	-2	-2	-3	-2	-2	-3	-2	-3	-2	-2	-2	2	3	5	6	6	5	4	3	1	-1	-2	-2	-2	-1	-1	-1	8
2432696319
2136539039
8	1	-1	-1	-2	-2	-2	-3	-1	-2	-1	-1	-1	-2	-2	-2	-1	1	2	4	5	5	5	4	3	1	-1	-2	-2	-1	-1	-1	-1	1	1	1	-1	-1	-2	-1	-2	-1	-1	-1	-1	-1	-1	-3	-3	-3	-14
3219100799
4292870123
-14	1	3	4	5	4	3	2	1	-1	-1	-2	-2	-1	-1	1	1	-1	-1	-1	-1	-1	-2	-1	-1	-1	-1	-1	-1	-1	-2	-2	-2	-2	2	3	5	5	5	4	3	1	1	-1	-1	-2	-2	-2	-2	-1	1	1	1	2
2413797375
4030726015
2	-1	-2	-1	-1	-2	-1	-2	-1	-2	-2	-1	-2	2	4	4	5	4	4	3	2	1	-1	-1	-2	-2	-2	-2	-1	-1	-1	-1	-1	-1	-1	-1	-1	-1	-1	-2	-2	-2	-2	-2	1	3	3	5	6	4	4	11
3754770428
4290761963
11	1	-2	-2	-2	-3	-2	-2	-2	1	1	1	-1	-1	-1	-1	-1	-2	-1	-1	-2	-2	-2	-2	2	3	5	4	5	5	3	3	1	-1	-3	-2	-2	-3	-1	-1	-1	1	1	-1	-1	-1	-1	-2	-2	-8
4261412628
268173055
-8	-2	-3	-2	-1	-1	2	2	4	5	5	5	3	2	1	-1	-1	-2	-2	-2	-2	-1	-1	1	1	-1	-2	-2	-3	-3	-2	-3	-2	-1	1	3	4	6	5	5	3	3	1	-1	-2	-2	-3	-2	-2	-2	-1	-0
1946153983
4260626431
1	1	1	-1	-1	-1	-2	-1	-1	-1	-2	-2	-2	-2	-2	-2	-2	2	3	5	5	6	5	4	2	1	-1	-1	-2	-2	-2	-1	-1	1	1	2	1	1	-1	-2	-1	-3	-2	-2	-2	-2	-1	-2	-2	-3	-3	-2	-1	-1	2	3	-11
4278123519
4278189966
-11	6	5	5	4	3	1	-1	-1	-2	-2	-2	-2	-1	1	1	2	1	1	-1	-2	-1	-2	-1	-2	-1	-2	-2	-1	-2	-2	-1	-2	-2	-2	-1	2	4	5	6	6	5	5	2	2	-1	-1	-3	-3	-2	-2	-1	-1	1	1	1	7
4294934527
3887071103
7	-1	-2	-2	-1	-2	-1	-2	-1	-2	-2	-2	-2	-2	-2	-1	1	3	5	5	6	5	4	3	1	1	1	-1	-1	-2	-2	-2	-2	-2	1	1	1	1	1	-1	-2	-3	-3	-3	-4	-2	-3	-3	-3	-2	-1	1	4	5	6	6	5	5	15
4292837375
4294947903
15	1	1	-1	-1	-2	-2	-2	-2	-1	1	1	2	1	1	-1	-1	-1	-1	-1	-1	-1	-2	-1	-2	-1	-2	-1	-1	1	3	3	4	4	4	2	1	-1	-1	-2	-3	-3	-3	-2	-2	-1	1	1	1	1	-1	-1	-2	-2	-1	-2	-7
4294965839
3823368187
-7	-2	-2	-2	-2	-3	-3	-2	-1	1	3	5	7	6	6	4	1	-1	-1	-2	-2	-1	-1	1	1	1	1	1	1	1	-1	-1	-2	-1	-1	-1	-1	-2	-2	-2	-1	1	2	3	3	3	2	1	1	-1	-1	5
4226809339
4294737919
5	-1	-2	-1	-1	2	1	2	1	1	-1	-1	-1	-2	-1	-2	-1	-1	-1	-1	-2	-1	-3	-2	-2	-1	2	4	5	6	5	5	3	1	1	-1	-2	-1	-2	-1	-1	-1	1	1	2	2	3	2	2	1	-1	-2	-3	-4	-4	-4	-3	-3
4244569851
2952789502
-3	-2	-1	-2	-1	-2	2	2	4	3	3	3	1	-1	-3	-3	-5	-4	-4	-2	2	2	3	2	1	-1	-1	-1	-1	-1	-1	-1	-1	-2	-1	-1	-1	1	1	3	4	5	4	5	3	2	1	-1	-1	-2	-2	-2	-2	-1	-1	-1
3254763519
4190109695
-1	1	-1	-1	-1	-2	-2	-2	-2	-2	-2	-1	2	4	4	6	6	5	5	4	3	1	-1	-2	-3	-4	-3	-4	-3	-2	-1	1	-1	-2	-2	-2	-2	-3	-2	-3	-3	-3	-3	-3	-1	1	2	4	5	6	7	5	5	3	2	13
4280942591
4227452927
13	-1	-1	-2	-2	-2	-1	-1	1	1	-1	-1	-1	-1	-3	-2	-4	-3	-4	-3	-2	-1	1	2	4	4	6	6	6	4	3	2	-2	-2	-2	-2	-2	-2	-1	1	1	1	-1	-1	-2	-1	-1	-2	-2	-2	-3	-3	-3	-2	-16
3220161247
4278190041
-16	3	4	4	6	5	4	4	2	1	-2	-2	-2	-3	-2	-2	1	-1	-1	-1	-1	-1	-1	-1	-2	-2	-2	-3	-2	-2	-1	2	4	5	6	5	4	3	2	1	-1	-1	-2	-2	-3	-2	-2	-1	1	1	1	-1	4
4294704382
872415225
4	-1	-1	-1	-1	-2	-2	-3	-2	-2	-2	-2	-1	2	2	5	5	5	4	4	2	-1	-1	-2	-2	-2	-2	-1	1	1	-1	-1	-1	-1	-2	-1	-2	-1	-2	-1	-2	-1	-1	-1	1	1	2	4	4	5	4	3	2	-2	8
4240818127
4160347135
8	-2	-2	-2	-2	-1	1	1	-1	-1	-1	-1	-1	-1	-2	-2	-1	-2	-1	2	3	4	4	4	4	2	2	-1	-2	-2	-3	-2	-2	-1	-1	1	1	1	1	-1	-2	-1	-1	-2	-1	-2	-1	-2	-1	-1	-14
4293912335
4278190031
-14	1	1	3	4	4	5	3	3	2	1	-1	-2	-3	-3	-3	-2	-1	1	1	1	-1	-1	-1	-2	-1	-1	-2	-1	-2	-2	-1	2	3	4	4	4	4	2	2	1	1	-1	-2	-3	-2	-3	-2	-1	-1	1	1	1	1	2
3220831996
687865843
2	-1	-1	-1	-1	-2	-1	-2	-2	-2	-2	-2	2	3	4	5	4	3	3	1	-1	-1	-2	-2	-2	-1	1	1	-1	-1	-1	-1	-1	-2	-1	-1	-2	-2	-1	-1	1	1	3	4	4	3	3	2	-2	-1	4
4239982559
4159056447
4	-2	-2	-2	-1	-1	1	2	1	1	-1	-1	-1	-1	-1	-2	-2	-2	-2	-1	1	2	4	4	4	3	3	1	1	-2	-2	-2	-3	-2	-1	1	1	-1	-1	-1	-1	-1	-2	-3	-3	-2	-16
3219111863
4261396339
-16	1	3	4	4	5	4	2	2	-2	-2	-3	-2	-3	-2	-1	1	1	1	1	1	1	-1	-1	-1	-1	-1	-2	-1	-2	-3	-2	-2	1	2	3	4	4	4	3	3	1	1	-2	-2	-2	-2	-1	-1	1	1	1	-1	-1	-1
2682781181
1140850679
-1	-1	-1	-2	-2	-3	-3	-2	-2	2	4	4	5	5	4	3	2	1	-1	-3	-2	-3	-3	-1	-1	1	1	-1	-1	-1	-1	-2	-1	-2	-2	-2	-2	-1	-1	1	3	4	4	5	4	4	4	2	1	-1	-1	-2	10
3814719359
3755933693
10	-2	-1	1	1	-1	-1	-1	-2	-2	-2	-2	-3	-3	-3	-2	-2	-2	-1	2	4	4	6	5	5	4	3	1	-1	-2	-2	-1	-2	-1	-1	1	1	1	1	-1	-1	-2	-1	-2	-2	-2	-2	-3	-3	-3	-2	-3	-1	1	-14
4282349823
4261379965
-14	5	5	6	6	4	3	1	-2	-2	-2	-2	-1	-1	1	1	1	1	-1	-1	-1	-2	-2	-2	-2	-2	-3	-2	-3	-2	-3	-2	1	4	4	6	6	6	4	3	1	-1	-1	-2	-2	-2	-2	-1	1	1	1	1	1	-1	9
4294835966
1073741823
9	-1	-2	-2	-2	-2	-3	-2	-3	-2	-3	-3	-2	-1	3	4	6	6	5	5	3	2	-1	-1	-3	-2	-3	-2	-2	2	1	1	1	-1	-1	-1	-1	-2	-2	-3	-3	-3	-4	-4	-3	-4	-3	-2	-1	2	3	5	5	5	4	2	2	-1	-2	-10
4294966271
4294914047
-10	-4	-4	-4	-3	-2	-1	1	3	4	5	5	6	7	5	6	5	4	4	2	1	-1	-3	-4	-4	-5	-3	-2	1	2	4	6	5	4	3	2	-1	-1	-3	-3	-3	-3	-3	-3	-1	-1	-1	1	-1	-1	-1	-2	-2	-3	-2	-3	-3	-2	-2	-3	-15
4294966407
4294705150
-15	-3	-2	-2	-1	2	4	6	7	8	6	5	3	1	1	-1	-2	-2	-3	-2	-1	-1	1	-1	-1	-1	-1	-2	-2	-2	-1	-2	-2	-2	-2	-2	-3	-2	-2	1	3	5	6	6	6	4	4	1	1	-2	-1	-3	-2	-2	-1	-1	7
3925868543
3755900927
7	1	1	1	-1	-2	-1	-2	-2	-2	-2	-2	-1	-2	-1	-2	-2	-3	-2	-3	-1	1	2	4	6	6	6	6	4	2	1	-2	-3	-3	-3	-2	-2	-1	1	1	1	1	-1	-1	-1	-1	-1	-2	-2	-2	-2	-2	-1	-2	-2	-2	-1	-19
4292861823
4278165453
-19	1	3	4	6	5	5	4	3	1	-1	-2	-2	-3	-3	-2	-1	1	1	1	1	1	-1	-1	-1	-1	-2	-2	-2	-2	-2	-3	-3	-3	-2	-1	1	4	4	6	6	5	5	3	2	-2	-3	-3	-3	-3	-2	-1	1	2	1	1
4026400639
3120562175
1	-1	-1	-2	-1	-3	-2	-3	-2	-3	-3	-2	-2	3	4	6	6	6	6	4	3	1	-1	-2	-3	-3	-3	-2	-2	-1	1	1	1	-1	-1	-2	-1	-2	-2	-1	-3	-2	-3	-2	-3	-1	-1	1	3	4	6	6	7	5	4	3	1	-1	14
4257480703
4294901759
14	-3	-2	-3	-2	-1	1	1	1	-1	-1	-1	-2	-2	-3	-3	-2	-3	-3	-2	-3	-1	-1	2	3	5	6	6	6	5	3	2	1	-1	-1	-2	-2	-2	-2	-1	-1	1	2	1	1	1	-1	-1	-1	-2	-3	-2	-2	-2	-3	-3	-2	-3	-16
4294441959
4294964211
-16	-2	-1	1	2	4	6	7	6	5	4	2	-1	-1	-3	-2	-3	-2	-2	-1	1	1	1	1	1	-1	-2	-1	-2	-3	-1	-2	-1	-2	-2	-2	-2	-2	-1	1	2	3	4	5	5	5	3	3	-2	-2	-3	-2	-2	-1	1	1	6
3489644527
3730833407
6	1	-1	-1	-1	-2	-2	-2	-3	-2	-3	-2	-2	-1	-1	1	3	4	4	5	5	4	2	2	-2	-2	-3	-3	-2	-2	1	1	1	1	-1	-1	-1	-1	-1	-1	-2	-2	-3	-3	-3	-3	-3	-1	1	3	5	6	6	5	5	4	14
4287381501
4294915839
14	1	-1	-1	-2	-3	-2	-2	-2	1	1	-1	-2	-1	-2	-1	-2	-2	-2	-3	-3	-2	-2	1	4	5	5	6	6	4	3	1	1	-1	-2	-3	-2	-3	-2	-1	1	1	1	-1	-1	-1	-2	-1	-1	-1	-1	-2	-7
4294901425
4294442239
-7	-3	-3	-2	-3	-1	1	2	4	5	6	5	4	3	1	-1	-1	-2	-1	-2	-1	-1	1	1	1	-1	-1	-1	-1	-2	-2	-2	-2	-3	-2	-3	-1	-1	1	2	4	4	4	5	3	3	2	-2	-3	-2	-3	-2	-1	-1	1	-0
2080366591
4020174719
1	2	1	1	-1	-1	-2	-1	-1	-1	-1	-2	-3	-2	-2	-1	1	2	4	4	5	5	4	3	2	1	-1	-2	-2	-2	-2	-1	1	1	2	2	1	-1	-1	-2	-1	-1	-1	-1	-3	-3	-4	-3	-2	3	3	5	4	5	4	3	21
4289200127
4261344783
21	1	1	-1	-2	-2	-2	-1	-2	-1	-1	-1	-2	-2	-2	-2	-2	-3	-2	-3	-3	-3	-3	-3	-1	-1	1	3	5	6	7	7	6	4	2	-1	-3	-3	-3	-3	-3	-3	-1	1	2	1	1	-1	-1	-1	-2	-2	-2	-6
3221221375
4294966159
-6	1	3	4	5	6	6	7	5	6	4	3	1	-1	-3	-3	-4	-2	2	3	2	1	-4	-9	-14	-20	-22	-22	-19	-16	-11	-9	-5	-5	-4	-2	-1	1	3	6	8	10	14	15	17	16	15	12	8	5	1	-2	-2	-1	-1	-2	-3	-4	-10
3758096383
4244111358
-10	-3	1	3	3	5	4	4	5	4	4	4	4	3	1	1	-1	-2	-4	-4	-5	-5	-5	-5	-4	-4	-4	-3	-2	-2	-2	-1	1	1	2	2	2	-2	-2	-2	-2	1	2	2	3	3	3	3	2	3	3	3	5	5	5	5	3	3	1	34
2317877247
939034622
34	-1	-1	1	-1	-1	-2	-1	-2	-1	-2	-2	-2	-3	-2	-4	-4	-5	-6	-5	-5	-3	-2	1	2	1	-1	-1	-1	-1	-1	-1	-1	-1	2	1	3	2	3	3	2	1	1	-1	-6
4293370391
4288649812
-6	1	2	2	3	3	3	2	2	2	1	-1	-1	-1	-2	-1	-1	-1	-1	-1	-1	-1	-1	-2	-1	-2	-1	-2	-1	-1	1	2	2	1	2	1	-1	-1	-1	-1	-1	-1	-5
2874736434
1099352830
-5	-1	-1	-1	-1	-1	-1	-1	2	1	2	2	2	2	1	1	1	-1	-1	1	-1	-1	-1	-1	-1	-1	-1	1	2	1	2	2	2	1	1	5
2722187775
4237691455
5	-1	-1	-1	-1	-1	-1	-1	-1	-2	-1	-2	-1	1	1	1	2	3	2	1	1	1	1	-1	-1	-1	1	1	-1	-1	-1	-2	-1	-1	-4
3556661393
3211786465
-4	-1	-1	1	1	1	2	2	1	2	2	1	-1	-1	-1	-1	-1	1	-1	-1	-1	-1	-1	-1	-1	-1	-1	1	1	1	2	1	1	1	1	1	-1	-2	-1	1	0
33505226
2326001663
-1	-1	-1	-1	-1	-1	-1	-1	-1	1	2	3	2	2	2	1	1	1	-1	-1	1	1	-1	-1	-1	-1	-2	-2	-1	-1	1	1	1	2	2	3	2	3	3	3	3	22
4093640703
4026527743
22	3	1	1	1	1	3	5	5	5	4	1	-2	-4	-6	-6	-6	-4	-3	-2	-4	-4	-6	-7	-8	-8	-8	-9	-9	-9	-8	-5	-3	3	6	8	11	11	12	10	8	7	5	5	5	5	4	3	-3	-3	-4	-5	-4	-6	-6	-6	-6	-4	-2	1	-11
4278189924
2130509807
-11	3	4	3	2	2	1	-2	-3	-4	-6	-7	-6	-4	-2	-1	1	1	2	1	1	1	2	1	1	-1	1	1	1	2	1	1	-1	-1	-2	-2	-3	-1	2	3	3	3	4	3	4	3	3	2	1	-1	-2	-3	-3	-5
3555917759
4291293183
-5	-1	1	-2	-2	-3	-2	-2	-1	-1	1	2	3	4	5	5	3	3	1	-2	-3	-3	-4	-4	-4	-3	-3	-3	-3	-5	-5	-4	-4	-3	-2	-1	-1	-2	-2	-3	-1	2	4	7	9	10	9	10	8	6	5	3	2	19
3152543743
4293382655
19	-1	-2	-1	1	2	2	2	2	-1	-2	-2	-2	-3	-3	-3	-4	-4	-5	-4	-5	-3	-3	1	3	5	7	8	7	7	5	4	2	1	-1	-2	-2	-3	-1	1	2	1	1	1	1	-1	-1	-2	-2	-3	-3	-3	-2	-1	13
4294688511
4292640766
13	5	8	9	11	11	10	10	9	8	8	5	4	-2	-3	-2	2	5	6	5	4	-1	-4	-7	-9	-10	-12	-12	-12	-9	-7	-6	-4	-5	-5	-5	-4	-2	-1	2	1	1	-3	-4	-6	-8	-7	-4	-1	3	7	7	7	5	2	1	15
4294443007
4291559423
15	2	4	3	3	3	2	3	3	4	3	2	-1	-2	-2	-3	-3	-4	-8	-12	-14	-17	-18	-17	-16	-14	-11	-8	-5	-2	2	3	5	4	3	1	-1	-1	-2	-1	-1	-1	-2	-3	-5	-7	-9	-8	-7	-4	1	5	9	11	13	13	12	13	13	12	-31
4291225535
4226973695
-31	10	7	6	3	3	2	2	1	2	-1	-2	-1	1	1	-1	-2	-2	-1	1	2	3	4	5	5	5	5	3	3	1	-1	-2	-2	-2	-2	-1	-1	-1	-1	-2	-1	-2	-2	-2	-2	-2	-2	-2	-3	-2	-1	-2	-5
2682515519
4290769903
-5	1	3	3	3	4	3	2	2	-1	-1	-2	-2	-1	-1	-1	-1	-1	-2	-1	-1	-2	-1	-1	-2	-2	-2	-3	-2	-1	1	3	4	4	3	3	3	1	2	1	-1	-2	-2	-2	-1	1	1	1	1	7
2948562943
2680160255
7	-1	-1	-1	-1	-1	-1	-2	-2	-2	-3	-2	-2	1	2	4	4	4	4	4	2	1	1	-1	-1	-2	-3	-2	-2	1	3	2	3	2	1	-1	-3	-3	-3	-4	-2	-3	-1	-2	-3	-2	-3	-3	-1	1	2	3	5	5	5	4	3	12
3756417023
4290650551
12	1	-1	-2	-3	-2	-3	-2	-2	-1	1	1	-1	-1	-1	-1	-1	-1	-2	-2	-2	-3	-3	-3	-1	-1	2	3	4	6	5	5	4	2	2	-1	-2	-2	-1	-1	1	-1	-1	-1	-1	-1	-1	-1	-6
3892248113
4290770895
-6	-1	-2	1	2	3	4	4	4	3	3	2	1	-2	-3	-3	-4	-4	-2	-1	1	-1	-1	-1	-1	-1	-2	-2	-2	-2	-2	-1	1	2	4	5	5	4	4	2	2	1	-1	-1	-2	-1	-1	1	1	1	1	11
4294967063
1673525242
11	-1	-1	-2	-2	-1	-2	-1	-2	-2	-2	-3	-2	-3	-1	-1	1	2	4	4	3	4	2	2	-1	-1	-1	1	1	1	-1	-1	-1	-1	-1	-1	-2	-1	-2	-2	-3	-1	-1	1	2	3	2	3	2	1	1	-1	1
4027318271
3758043127
1	-1	-2	-1	-1	-1	-2	-1	-2	-2	-1	-1	-1	-1	-1	1	3	4	5	5	6	5	4	3	2	-1	-2	-3	-3	-2	-2	-1	-1	-2	-1	-1	-1	-1	-1	-1	-2	-1	-2	-3	-2	-2	-1	2	3	4	-2
4294812159
4292831967
-2	4	3	2	1	1	-1	-1	-2	-1	-1	-2	-1	-1	-1	1	1	-1	-1	-2	-2	-3	-2	-2	-2	-1	1	2	3	4	4	5	4	3	2	1	-2	-1	-2	-2	-1	-1	1	1	-1	-1	-1	-1	-2	-1	-2	-3	-8
4294900895
3220175288
-8	-2	-2	-2	-1	1	2	3	4	4	4	4	4	2	2	-1	-1	-3	-2	-2	-1	1	-1	-2	-1	-1	-1	-1	-1	-1	-1	-1	-2	-3	-2	-2	-1	2	4	4	5	4	4	2	1	1	-1	-1	-1	-1	-1	7
2415910899
4022337503
7	-1	-1	-2	-2	-2	-2	-2	-2	-2	-1	-2	-2	-2	-1	1	3	4	5	4	4	3	2	1	-1	-2	-2	-1	-1	1	1	1	1	1	-1	-1	-1	-2	-1	-2	-1	-1	-2	-1	-1	-2	-2	-2	-2	-1	1	2	4	4	3	3
4227028991
3757229887
3	2	2	2	1	-1	-1	-1	-1	-1	-1	1	1	1	-1	-1	-2	-1	-2	-1	-1	-1	-2	-1	-2	-3	-2	-1	1	2	3	4	4	3	4	2	1	-1	-1	-1	1	1	1	-1	-1	-2	-1	-1	-1	3
4294966497
1073739774
3	-1	-1	-2	-1	-2	-2	-3	-1	-2	-1	1	2	4	4	6	5	5	4	2	2	2	-1	-1	-1	1	-1	-1	-2	-2	-3	-3	-3	-4	-5	-5	-5	-4	-5	-4	-4	-4	-2	-1	3	5	5	6	5	4	4	2	2	1	0
781451263
4261197567
-1	1	1	1	1	-1	-1	-1	-1	-1	-1	-1	-2	-2	-1	-2	-2	-2	-1	-1	1	3	3	4	4	4	3	3	1	1	-1	-2	-2	-2	-1	-1	-1	1	1	1	1	-1	-2	-1	-1	-2	-1	-2	-2	-2	-12
4026529027
4293392888
-12	-2	-2	1	1	3	4	4	4	4	2	2	1	-1	-1	-2	-1	-1	-1	1	1	-1	-1	-2	-2	-1	-2	-1	-1	-2	-1	-2	-2	-1	2	3	3	4	4	4	2	2	-1	-2	-1	-2	-1	-2	2
4160745467
4139704319
2	2	1	1	-1	-1	-2	-2	-2	-2	-1	-2	-2	-2	-2	-1	-2	-1	1	3	4	4	4	4	3	2	1	-1	-2	-2	-2	-1	-1	1	1	1	-1	-1	-1	-1	-1	-1	-1	-1	-1	-2	-1	-2	-2	-2	-1	1	2	3	4	4	2
4160372607
4294433896
2	4	2	2	-1	-1	-2	-2	-1	-1	-1	1	1	-1	-1	-1	-1	-1	-1	-1	-1	-1	-1	-2	-2	-2	-2	-1	1	2	3	3	4	4	3	2	2	1	-1	-1	-2	-2	-2	1	1	1	-1	-2	-1	-0
2143287242
4294934511
-1	-1	-1	-3	-3	-3	-2	-2	2	3	3	4	5	3	3	3	1	1	-1	-1	-2	-2	-1	1	1	1	-1	-1	-1	-1	-2	-1	-2	-1	-1	-2	-2	-2	-3	-3	-1	2	3	4	4	4	3	3	1	1	1	-1	-1	-1	-2	4
3992977407
3743743999
4	-1	-1	1	1	1	-1	-1	-1	-2	-1	-2	-2	-2	-1	-2	-1	-1	-2	-2	-2	-1	1	1	4	5	6	5	5	3	2	1	-1	-2	-1	-2	-1	1	1	-1	-1	-1	-2	-1	-2	-2	-1	-2	-2	-3	-3	-3	-2	-2	1	-16
4279250095
4177509991
-16	4	5	6	4	4	2	2	-1	-1	-1	-1	1	-1	-2	-2	-2	-3	-2	-2	-2	-1	-2	1	1	2	3	3	3	3	3	1	-1	-2	-2	-1	-1	-1	-1	1	1	3	7
4160684031
4294852351
7	2	2	2	-1	-2	-4	-5	-5	-5	-4	-4	-3	-2	2	4	6	9	10	10	10	8	6	4	1	-2	-4	-5	-6	-6	-5	-5	-4	-4	-5	-6	-7	-7	-7	-6	-4	-3	-1	-1	1	-2	-2	-3	-3	-1	3	3	5	4	4	3	3	3	-20
4294959099
4294907903
-20	2	2	2	1	2	3	2	1	2	1	2	2	2	3	3	2	1	-1	-2	-3	-4	-4	-4	-4	-3	-2	-1	2	3	4	5	4	5	3	3	2	1	1	-1	-1	-1	-1	-1	-1	-1	-1	-1	-1	-1	-2	-1	-1	-1	-1	-2	-3	-3	-10
4160716783
4294443002
-10	-3	-2	-2	1	2	4	4	6	5	4	4	3	2	1	-1	-1	-2	-1	-1	-1	1	1	1	1	-1	-1	-2	-2	-3	-2	-3	-2	-2	-3	-3	-3	-5	-3	-4	-1	2	5	6	6	6	6	4	2	2	1	-1	-1	-2	-2	-2	-2	1	8
2315239423
2555117567
8	-1	-1	-1	-2	-3	-4	-4	-5	-5	-4	-3	1	4	4	6	6	5	5	4	2	2	1	-1	-1	-1	-1	1	1	-1	-1	-2	-3	-4	-4	-4	-5	-4	-4	-2	-1	1	3	5	6	7	6	5	4	19
3876126719
4291296959
19	2	1	-1	-1	-1	1	-1	-1	-2	-2	-3	-3	-4	-3	-4	-4	-3	-3	-1	1	1	4	4	4	5	4	4	3	3	2	1	1	-2	-1	-2	-2	-2	-2	-1	-1	-1	-1	-1	-2	-1	-2	-2	-2	-2	-6
4093574411
4290771397
-6	-2	-2	-1	2	2	3	4	4	3	3	1	1	-1	-1	-1	-1	-1	-1	-1	-1	-1	-1	-1	-1	-2	-2	-3	-3	-3	-3	-2	1	2	3	4	4	4	3	3	2	1	1	-1	-1	-1	1	1	9
4294901692
4274020351
9	-1	-1	-1	-1	-2	-2	-2	-3	-3	-2	-3	-3	-2	-1	1	3	3	5	5	4	4	3	2	-1	-1	-1	-1	1	2	1	2	1	1	1	-1	-1	-1	1	3	4	6	7	8	9	8	8	7	6	6	5	98
4294966783
4294967295
98	5	6	3	1	-5	-12	-20	-27	-31	-34	-34	-31	-27	-23	-19	-15	-12	-9	-7	-5	-3	3	5	8	12	15	18	20	22	20	20	18	17	16	15	14	12	10	9	8	9	9	10	10	8	6	4	1	-2	-6	-9	-12	-14	-16	-14	-13	-10	-7	-4	-1	1	2	17
4294965119
4026007551
17	4	5	6	5	5	4	1	-1	-3	-5	-8	-10	-11	-13	-14	-11	-10	-5	-3	1	2	1	-1	-4	-5	-7	-9	-9	-9	-8	-4	-3	2	4	3	4	4	4	3	1	-4	-6	-7	-7	-5	-2	1	3	4	2	2	1	2	3	6	8	10	11	12	-31
4294966271
4093575167
-31	13	13	13	11	10	9	7	7	6	7	7	7	5	3	1	-2	-5	-5	-5	-3	2	5	6	8	8	7	5	4	1	-1	-2	-3	-2	-1	1	2	1	2	2	2	3	2	2	-3	-8	-11	-18	-21	-24	-26	-26	-24	-24	-23	-22	-19	-17	-14	-10	-175
4294967295
3757963135
-175	-5	-3	-1	1	2	5	8	9	11	12	13	14	13	14	14	14	12	12	10	9	7	6	6	5	4	2	2	-1	-2	-3	-4	-4	-3	2	6	8	10	11	10	9	7	5	4	2	-1	-2	-2	-2	-2	1	1	1	1	-1	-1	-2	-2	-3	-4	56
4293918719
1610579967
56	-4	-4	-5	-6	-7	-7	-7	-6	-5	-2	3	4	5	5	5	4	2	2	-1	-2	-4	-5	-5	-5	-3	-2	-1	1	1	1	-1	-1	-1	-1	-2	-2	-2	-4	-4	-4	-4	-4	-4	-1	3	6	6	8	7	7	5	4	2	1	-1	-2	-3	-4	-2	7
3321888766
4238344191
7	-1	-1	-1	-1	-2	-1	-2	-2	-2	-3	-4	-5	-5	-5	-3	-1	2	4	7	7	8	7	6	5	4	1	-1	-3	-4	-3	-2	-1	1	-1	-2	-1	-2	-2	-2	-3	-3	-3	-4	-4	-4	-3	-2	2	4	6	7	8	7	6	15
4022984703
4278069247
15	3	1	-1	-3	-3	-3	-3	-1	1	-1	-1	-1	-1	-2	-2	-2	-4	-4	-5	-4	-3	-2	2	4	6	7	7	7	5	4	3	1	-1	-2	-3	-3	-2	-2	-2	1	-1	-1	-2	-2	-2	-3	-4	-3	-4	-4	-2	-24
3221220479
4294950841
-24	2	3	5	6	7	6	5	3	3	1	-1	-1	-3	-3	-2	-2	-2	-1	1	-1	-1	-1	-2	-1	-2	-2	-2	-3	-3	-4	-3	-2	-2	1	3	4	6	6	6	5	4	3	1	-2	-3	-4	-3	-3	-2	-1	1	2	1	-1	-3
4293918715
2415919103
-3	-2	-1	-2	-2	-2	-3	-3	-3	-3	-1	1	4	5	6	6	6	5	4	2	1	-1	-1	-3	-3	-3	-2	-1	1	2	2	-2	-1	-1	-1	-2	-1	-3	-2	-4	-3	-3	-2	-1	1	3	5	6	6	6	6	4	2	1	-1	-2	-3	-4	-4	3
4261542910
4278714367
3	-2	-1	1	1	2	1	-1	-2	-2	-2	-2	-2	1	2	3	5	5	5	4	3	1	-1	-3	-5	-5	-4	-3	-2	-1	-1	-1	-2	-2	-2	-2	-2	-3	-3	-4	-4	-4	-2	-1	2	4	5	6	7	-3
4291821567
3221212095
-3	5	5	3	2	1	-1	-2	-2	-1	2	2	3	2	3	2	2	3	2	3	1	1	-1	-3	-5	-5	-6	-5	-5	-3	-1	2	3	4	5	4	4	2	1	-1	-3	-4	-4	-4	-3	-2	-2	-1	-1	-1	-1	-1	-1	-2	-3	-4	-5	-24
4227334127
4294967295
-24	-5	-5	-3	-2	2	3	4	4	4	3	-1	-4	-6	-5	-6	-6	-6	-5	-6	-6	-6	-5	-5	-3	4	10	13	17	17	16	13	11	8	6	5	4	3	3	2	3	5	5	4	2	-1	-7	-10	-12	-12	-9	-5	-1	3	6	5	5	1	-3	-7	-10	-5
4294967295
4294967295
-5	-9	-8	-6	-6	-5	-5	-5	-3	-1	2	3	4	5	7	8	10	11	12	11	10	9	7	6	5	2	2	1	1	1	-1	-3	-6	-9	-10	-10	-10	-7	-5	-4	-3	-1	-2	-1	-2	-1	-3	-2	-3	-3	-2	-2	-1	-2	-1	-2	-2	-2	-1	-1	1	1	3	5	-22
4294966303
3484155902
-22	7	9	8	7	5	2	1	-1	-2	-1	-2	-3	-3	-3	-3	-4	-3	-3	-2	-2	-1	-1	-2	-1	-1	-2	-1	-1	1	1	2	2	1	-1	-1	1	1	2	3	2	2	1	2	2	2	2	4	4	4	4	4	2	21
4294967295
4291805183
21	-3	-3	-3	-3	-4	-5	-6	-6	-6	-6	-4	-3	-3	-3	-3	-5	-4	-5	-3	-2	1	2	4	4	4	4	3	3	4	3	4	5	6	7	7	8	7	6	4	3	2	-1	-3	-2	-2	-2	2	2	3	3	1	-2	-3	-6	-7	-8	-6	-6	-5	-5	-19
4294959996
1744830461
-19	-5	-5	-5	-5	-4	-2	1	5	7	10	10	11	9	8	4	3	1	-1	1	1	-1	-1	-2	-1	-1	1	1	-2	-2	-2	-3	-3	-2	1	2	5	8	8	8	6	4	2	-1	-1	-3	-2	-3	-2	-3	-3	-2	-1	1	33
4068474879
3892314111
33	3	1	2	-1	1	-1	-1	-3	-5	-5	-6	-6	-5	-4	-2	-1	1	2	3	3	1	1	-2	-3	-4	-6	-6	-5	-4	-2	-1	-1	-3	-5	-5	-6	-6	-6	-5	-5	-4	-4	-4	-4	-4	-5	-5	-5	-5	-2	1	5	9	14	16	18	17	-8
4294836223
2683371519
-8	17	16	14	12	10	8	6	5	4	4	4	3	2	-3	-6	-8	-11	-12	-14	-14	-14	-13	-12	-10	-8	-6	-5	-4	-3	-2	-2	1	3	4	4	5	3	3	2	2	1	2	2	3	3	2	3	3	2	2	2	2	2	1	1	1	9
4269703136
2861498239
9	-1	-2	-2	-2	-2	-1	1	2	2	2	1	1	-2	-1	-2	-2	-1	-2	-1	-1	-1	-1	1	1	-1	-1	-1	-1	-1	-1	1	2	3	3	4	3	2	2	-1	-1	-2	-2	-2	-2	-1	-1
2438374398
4269145631
-1	1	-1	-1	-1	-1	-1	-1	-1	1	1	2	2	2	1	2	1	1	-1	-1	-1	-2	-1	-1	-1	1	1	1	1	-1	-1	-1	-1	-1	-1	-1	-1	1	1	2	1	2	2
4059074655
1069496623
2	1	2	1	-1	-2	-2	-2	-1	1	1	-1	-1	-1	-1	-1	-1	1	2	3	2	2	2	1	-1	-1	-2	-2	-1	-2	1	1	1	-1	-1	-1	-1	-1	-2	-7
2885548446
373286856
-7	-1	1	2	1	3	2	3	2	1	1	-1	-1	-3	-2	-2	-2	1	1	-1	-2	-1	-1	-1	-1	-1	1	2	3	3	4	3	3	2	2	-2	-2	-3	-3	-1	1	3
3220962941
3791642611
3	-1	-1	-2	-1	-2	-2	-1	-1	-1	-1	-1	1	2	3	4	4	3	3	1	1	-2	-2	-2	-2	-1	1	1	1	1	-1	-1	-2	-2	-2	-1	-2	-1	-1	-1	-1	1	2	4	4	4	4	2	2	1	-2	-1	10
3797516159
2280158207
10	-2	-1	1	-1	-1	-1	-1	-1	-1	-2	-3	-2	-3	-2	1	2	4	3	4	2	1	1	-1	-1	-2	-1	-1	-1	1	-1	-1	-1	-1	-1	-1	-1	-2	-2	-2	-2	-1	-1	-14
4294967295
4269801470
-14	2	2	3	3	3	1	-1	-2	-4	-6	-6	-7	-8	-7	-6	-5	-4	-3	-3	-3	-4	-5	-3	-2	2	5	9	12	13	14	13	12	11	9	8	5	4	2	-1	-2	-1	-2	-2	-3	-3	-4	-4	-4	-3	-4	-4	-3	-3	-2	-2	-1	-1	-1	-1	-2	-14
3212836836
1535090675
-14	1	1	1	2	2	1	-1	-2	-2	-2	-1	1	2	4	4	5	4	4	3	2	1	2	1	1	-1	1	1	-1	-1	-1	-1	-2	-2	-3	-4	-3	-4	-2	3	3	4	5	4	5	3	3	1	-1	-2	24
4068474751
3741548535
24	-2	-1	-1	-1	-1	-1	-1	-1	-1	-1	-1	-1	-2	-2	-2	-4	-3	-3	-1	1	3	5	4	5	4	4	2	1	-1	-2	-2	-2	-2	-1	-1	-1	-1	-1	-2	-2	-3	-4	-3	-3	-2	-2	2	2	4	-0
2130521087
4293891103
4	3	3	3	1	1	-2	-2	-2	-2	-2	-1	-1	-1	-1	-1	-1	-1	-2	-2	-2	-2	-3	-3	-2	-1	-1	2	3	4	5	5	4	3	2	1	-2	-1	-3	-1	-2	1	1	-1	-1	-1	-3	-3	-10
4160634431
4290766815
-10	-2	-2	-2	1	1	3	4	4	4	4	2	2	2	-1	-2	-1	-1	-1	-1	-1	-2	-2	-2	-3	-2	-1	-1	-1	-2	-2	-2	-1	-1	2	4	4	5	4	4	3	2	2	-2	-2	-1	-1	1	1	1	1	-1	-1	5
4294443000
3221225359
5	-1	-2	-3	-2	-2	-3	-3	-3	-3	-2	-1	1	4	5	6	7	6	5	4	1	-1	-1	-2	-2	-1	-1	-1	-1	-1	-1	-2	-2	-1	-1	-2	-1	-3	-2	-4	-2	-2	-1	1	2	3	4	3	3	2	2	2	-1	-2	-1	-1	1
4231004157
4260298687
1	1	1	2	1	1	-1	-1	-1	-2	-2	-3	-2	-2	-1	1	2	3	4	4	3	3	3	1	1	-1	-1	-1	-1	-1	-1	-1	-1	-1	-1	-1	-1	-1	-1	-1	-1	-1	-2	-2	-2	-2	-2	-1	1	2	3	4	4	3	8
3890970617
4286470127
8	2	1	-1	-1	-1	-1	-1	-1	1	1	-1	-2	-1	-2	-1	-1	-1	-2	-2	-2	-2	-3	-2	2	3	4	4	4	4	3	2	1	-1	-1	-3	-2	-2	-1	1	1	-1	-1	-2	-1	-1	-2	-1	-2	-2	-2	-13
4294565919
2139088640
-13	-2	-1	1	2	3	3	4	3	4	2	3	1	-2	-1	-2	-1	-1	-1	-1	-2	-1	-1	-1	-1	-2	-3	-2	-2	1	2	3	4	3	4	2	2	1	1	-1	-1	-1	6
3221192607
964689663
6	-1	-1	-2	-1	-2	-1	-1	-2	-2	-1	-2	-2	-2	-1	2	2	4	4	4	3	3	1	-1	-2	-1	-1	-1	1	1	1	-1	-1	-1	-1	-2	-1	-1	-1	-2	-2	-2	-2	-2	-2	-1	1	3	4	4	4	4	3	2	8
2681274367
4278108927
8	-1	-1	-2	-1	-2	-1	-1	1	-1	-1	-1	-1	-1	-1	-1	-1	-2	-2	-1	-2	-2	-1	1	1	3	4	4	3	4	2	2	1	-1	-1	-1	-2	-1	-1	-1	1	-1	-2	-1	-2	-2	-2	-2	-2	-3	-19
3892118480
4294966943
-19	-1	-2	2	3	4	3	4	3	2	1	1	1	1	1	1	1	1	-1	-2	-1	-2	-2	-3	-2	-2	-1	-1	2	2	4	5	4	5	4	3	4	2	3	1	1	1	1	1	2	1	2	39
4288675839
4292870143
39	1	1	1	1	1	1	2	1	-2	-3	-5	-7	-7	-7	-6	-4	-4	-3	-4	-5	-6	-7	-7	-7	-6	-4	-2	1	3	4	6	5	6	5	5	4	4	3	2	-1	-5	-9	-11	-14	-14	-13	-10	-6	-1	1	5	6	7	7	7	7	5	4	4	2	-27
4294770431
4020246015
-27	2	1	2	1	2	2	2	3	1	1	1	1	1	-1	-1	-2	-2	-2	-2	-1	1	2	3	4	4	5	5	4	3	2	2	-1	-1	-1	-1	-1	-1	-1	-1	-2	-2	-2	-1	1	2	4	5	6	25
4026488831
4292257919
25	4	2	-2	-3	-4	-4	-3	-4	-3	-4	-3	-3	-2	-2	-1	-1	-1	-1	-2	-2	-2	-3	-2	-2	-2	-1	1	1	3	5	4	6	5	4	3	2	2	-1	-2	-1	-1	1	1	-1	-1	-1	-1	-2	-2	-2	-6
4026529151
4261412559
-6	-2	-1	1	3	3	4	4	3	3	1	1	-1	-1	-2	-1	-2	-1	-1	1	1	-1	-1	-1	-1	-1	-1	-1	-1	-3	-2	-3	-3	-2	1	3	4	5	4	4	4	2	1	1	-1	-2	-1	-2	-2	-1	-1	1	-1	-1	-2	-1	-1
4294966268
4269735807
-1	-1	-2	-2	-2	-3	-3	-3	-2	-2	-1	1	2	4	5	5	4	4	2	1	1	-1	-1	-1	-2	-2	-1	-2	-1	1	1	2	2	1	2	1	-1	-2	-1	-2	-1	-2	-1	-1	-2	-2	-3	-3	-2	-1	1	2	1	2	1	2	2	-5
4294572029
2080341503
-5	2	3	4	4	3	3	2	2	2	1	2	1	-2	-1	-2	-2	-1	1	2	3	4	3	3	2	2	1	1	1	2	1	1	-2	-4	-6	-6	-5	-4	-3	-2	-1	-1	1	2	2	2	1	-1	-1	-2	-1	-1	-3	-3	-4	-3	-5
3485466623
4294442495
-5	-1	-1	-1	-3	-3	-2	3	4	6	5	2	-1	-4	-8	-10	-12	-12	-11	-9	-6	-4	-2	-4	-5	-7	-9	-9	-8	-3	2	9	13	17	17	16	12	9	5	3	1	1	1	1	3	4	4	4	3	2	1	-1	-1	-1	-3	-5	-8	-11	-12	-49
4294967295
4294966271
-49	-14	-13	-12	-10	-8	-5	-3	1	4	7	10	10	10	9	6	5	3	2	2	4	7	9	13	14	16	16	14	11	8	5	1	-1	-4	-4	-6	-6	-6	-8	-7	-7	-6	-3	-2	3	5	8	11	11	10	8	7	3	-2	-4	-6	-6	-6	-6	-6	-6	-6	-6	19
4294836207
3825205247
19	-6	-7	-7	-6	-5	-5	-3	-3	-2	-1	-1	-2	-1	1	4	7	9	11	13	13	11	11	8	6	3	-2	-4	-5	-5	-4	-3	-1	-1	-1	-2	-1	-2	-2	-2	-3	-4	-4	-5	-6	-5	-4	-4	-2	1	4	6	9	9	8	8	6	4	2	52
4265607135
4159012859
52	-2	-3	-3	-4	-2	-2	-1	-2	-2	-3	-4	-4	-4	-4	-4	-4	-6	-6	-6	-6	-5	-2	3	5	8	8	9	7	7	4	3	-1	-3	-4	-3	-3	-1	1	-1	-1	-1	-2	-1	-2	-2	-3	-5	-4	-5	-4	-3	2	5	-7
4278075391
4294936063
-7	8	8	7	5	4	1	-2	-2	-3	-3	-2	-2	-1	-1	-1	-1	-2	-1	-2	-2	-3	-4	-4	-6	-5	-5	-2	-1	3	5	7	7	8	6	5	4	2	1	-1	-2	-3	-3	-2	-1	-1	-1	-1	-1	-1	-1	-2	-3	-4	-4	-16
4026530111
4294967276
-16	-4	-3	2	5	6	7	7	7	5	4	3	1	-1	-1	-3	-3	-3	-2	-1	1	-1	-1	-2	-2	-1	-2	-2	-2	-2	-3	-2	-3	-2	-1	1	3	4	7	6	6	5	4	2	1	-1	-1	-3	-3	-3	-4	-2	-2	-1	1	1	5
4294868933
67108863
5	-2	-2	-3	-2	-1	-2	-2	-2	-2	-3	-3	-3	-3	-2	3	4	6	6	6	4	4	2	2	-1	-1	-1	-1	-1	-2	-1	-2	-1	-2	-1	-2	-1	-1	-1	-2	-1	-2	-1	-1	1	2	4	6	5	6	4	3	17
3321888767
4294963198
17	2	-1	1	1	2	3	4	4	5	4	4	3	2	1	-1	-1	-3	-3	-3	-5	-5	-6	-7	-8	-9	-9	-8	-7	-6	-4	-2	-2	-1	-1	-1	-1	-2	-1	-1	-2	-2	-2	-1	-2	-1	-1	-1	1	1	2	4	4	5	5	3	3	1	-28
3573539839
4177526782
-28	-1	-1	-1	1	2	3	3	5	4	5	4	3	2	1	1	2	3	4	5	6	6	7	7	5	4	3	1	1	1	-2	-3	-4	-4	-5	-4	-5	-5	-6	-6	-6	-7	-7	-8	-7	-7	-5	-4	-1	1	1	2	1	-33
2652893183
4225759231
-33	1	1	1	1	-1	-3	-3	-5	-5	-5	-2	-1	1	1	-1	-2	-3	-3	-1	2	6	9	11	11	10	8	5	4	1	-1	-2	-2	-1	1	4	5	7	5	5	4	2	1	-1	-1	-4	-4	-6	-7	-7	-6	-4	-2	1	-7
4294967295
4290772991
-7	4	4	7	8	9	12	11	11	9	3	-1	-7	-10	-14	-14	-13	-10	-8	-5	-4	-3	-3	-3	-1	1	3	5	6	5	4	1	-1	-2	-4	-5	-6	-7	-6	-6	-4	1	4	5	6	5	6	5	4	5	4	3	2	3	2	2	3	3	3	3	2	1	1	32
4294934527
3224763391
32	-1	-2	-3	-4	-5	-7	-8	-8	-10	-9	-9	-8	-7	-6	-3	1	3	5	5	4	4	4	3	2	3	3	2	2	2	2	1	1	1	1	1	-1	-2	-3	-2	-2	-1	1	1	2	2	2	1	-1	-1	-3	-3	-21
4160733055
4291821519
-21	-3	-2	-2	1	1	2	2	2	2	2	1	2	1	1	1	-1	-1	-2	-2	-2	-2	1	1	3	4	4	5	4	4	3	2	1	-1	-1	-2	-2	-1	-1	-1	-1	-2	-2	-2	-2	-2	-1	-1	-1	-2	-1	-2	-1	2	4	5	6	7
4294967295
4294967288
7	8	8	9	9	8	8	7	6	5	4	4	5	6	6	6	6	4	2	-3	-6	-11	-13	-13	-12	-10	-9	-8	-8	-8	-9	-7	-6	-3	1	4	7	8	7	4	-1	-8	-12	-17	-17	-15	-10	-6	-2	3	6	6	7	7	6	6	4	4	3	2	2	-10
3892297700
973078527
-10	-1	-1	1	3	3	3	4	5	4	4	4	4	2	1	-1	-1	-1	-2	-2	-1	-1	-1	-1	1	1	1	2	-2	-2	-2	-3	-1	-2	-1	-1	-1	-1	-2	-2	-2	-2	-3	-3	-5	-6	-7	-7	-8	-6	-5	-2	-1	-56
4294967287
2220882941
-56	2	2	2	3	2	3	2	2	2	1	2	2	2	1	1	1	2	2	4	4	5	5	4	4	2	2	1	-1	-1	-1	-1	1	-1	-1	-1	-1	-1	-2	-2	-2	-2	-1	-1	1	3	4	4	4	3	2	1	-1	11
4292607983
1606236399
11	-2	-1	-2	-1	-1	1	1	1	2	1	-1	-1	-1	-1	-2	-1	-3	-2	-3	-2	-2	-2	-1	-1	1	1	1	2	1	-1	-1	-2	-2	-1	-1	2	1	2	1	1	1	1	1	-1	-1	-1	-1	1	2	3	0
2113573375
529242341
4	3	3	1	1	-1	-1	-1	-2	-1	-1	-1	1	1	-1	-1	-1	-1	-2	-1	-1	-1	-1	2	1	2	2	2	1	-1	-1	-1	-1	1	1	-1	-1	-1	-1	-1	-1
4227661439
1069539322
-1	-1	-2	-1	-2	-1	1	1	2	2	2	1	1	-1	-1	-2	-2	-2	-1	-1	1	2	1	2	2	1	1	-1	-1	-2	-1	-1	-1	-1	1	3	2	3	3	2	1	1	-1	-1	-1	-2	-1	-1	-1	1	1	1	-1	3
3484414973
2151645003
3	-1	-1	-1	-1	-1	-1	-1	-1	1	1	3	3	4	3	2	-1	-2	-2	-2	-2	-1	-1	1	1	1	-1	-1	-1	-1	-1	-2	1	2	2	3	2	2	1	1	-1	-2	-2	5
4258391039
4045037567
5	-2	-1	-1	-1	-1	-1	-1	-1	-1	-1	-1	-1	-1	1	2	2	3	3	2	1	1	-1	-1	-2	-1	-1	-1	1	-1	-1	-1	-1	-1	-1	-2	-2	-2	-1	-1	1	2	3	4	3	2	3
3755348987
4294922591
3	1	-1	-1	-1	-2	-1	-1	-1	1	1	1	1	1	-1	-1	-1	-1	-2	-1	1	1	2	2	3	2	1	1	1	-1	-1	-2	-1	-2	-2	-1	-1	-1	-1	-1	1	-1	-1	-1	-1	-1	-1	-11
3218935832
1342045451
-11	1	2	2	3	2	2	1	1	-1	-1	-1	-1	-1	1	1	-1	1	1	2	3	2	3	2	3	1	1	-1	-1	-2	-3	-1	-2	-1	-1	1	-1	-1	4
4278165480
402518015
4	-2	-2	-2	-2	-2	-1	-1	1	1	2	3	3	2	2	1	-1	-1	-1	-1	-1	-2	-1	-1	-1	-1	-1	-1	-2	-1	-2	-1	-1	-1	1	2	1	2	1	-2	-2	-3	-3	-2	-2	-2	-2	-3	-3	-4	-3	-42
4294967293
4294950911
-42	-3	-3	-3	-3	-5	-5	-7	-7	-7	-8	-8	-8	-8	-7	-4	-2	4	10	17	25	32	39	43	45	43	37	30	20	10	-6	-12	-15	-15	-15	-15	-14	-16	-19	-20	-23	-25	-27	-28	-28	-25	-18	-10	7	12	11	7	1	-6	-9	-11	-12	-10	-5	1	11	20	-58
4294967295
3755999231
-58	37	40	41	38	35	30	27	20	12	2	-11	-22	-31	-37	-36	-33	-26	-18	-11	-6	-2	1	2	2	2	1	-1	-3	-5	-5	-6	-4	-2	1	-1	-2	-4	-6	-6	-3	4	5	6	4	1	-1	-1	-2	-2	-2	-3	-6	-8	-10	-11	-9	-5	-1	3	7	9	-59
4294918141
4294926335
-59	11	12	12	12	10	9	6	4	2	2	3	2	3	2	2	-1	-1	-1	-2	-3	-5	-5	-6	-6	-5	-4	-2	3	5	7	8	7	7	5	4	1	1	-1	-3	-2	-3	-2	-2	-1	-1	-1	-1	-2	-1	-2	-1	-2	-1	-2	-2	-3	-5	-6	-10
4294436147
4261379803
-10	-6	-3	-1	2	5	6	6	6	4	3	1	-2	-3	-3	-3	-2	-2	1	1	1	1	-1	-3	-3	-3	-4	-4	-4	-2	2	4	6	7	7	7	4	3	2	-2	-3	-2	-3	-2	-1	-1	-1	-1	-1	-1	-2	-2
4290772986
1610612735
-2	-2	-2	-3	-4	-3	-4	-4	-1	2	5	6	6	7	6	5	4	3	1	-1	-2	-2	-3	-3	-2	-1	-2	-1	-1	-1	-1	-2	-2	-2	-4	-3	-4	-4	-3	-1	1	3	6	7	8	8	7	6	4	3	1	-1	-3	-3	-3	-4	-2	-1	-1	11
2281684975
3839885310
11	-1	-1	-1	-2	-3	-3	-3	-4	-3	-4	-3	-2	2	4	6	7	7	6	5	4	2	-1	-2	-3	-4	-2	-2	-1	1	-1	-1	-1	-2	-1	-2	-3	-3	-3	-4	-4	-3	-2	-1	1	2	3	4	3	4	3	2	1
4244373471
4158646271
1	-1	-2	-1	-2	-1	1	1	1	1	1	-1	-1	-1	-1	-2	-1	-2	-3	-3	-3	-3	-1	3	4	5	6	6	5	5	2	1	-2	-3	-3	-3	-2	1	1	2	2	3	2	2	1	-1	-2	-2	-2	-4	-4	-4	-4	-3	-1	1	-8
4286479359
3757559783
-8	4	5	6	4	4	2	1	-2	-2	-2	-2	-2	-1	1	1	1	1	-1	-1	-1	-2	-2	-3	-2	-3	-3	-3	-2	-2	2	3	4	5	5	5	4	3	1	-1	-1	-2	-1	-1	1	1	2	1	1	1	1	-1	-2	-4	8
4278140845
4294963199
8	-6	-7	-7	-6	-4	-2	2	4	4	5	5	4	2	2	-2	-3	-3	-2	-2	-2	-1	-1	-1	1	1	1	1	-1	-1	-3	-3	-3	-2	-1	2	3	5	7	7	7	6	5	4	1	-2	-3	-4	-4	-4	-2	-2	-2	-1	-1	-1	-1	-4
3221224446
3758096382
-4	-1	-1	-1	-3	-3	-3	-4	-3	-2	-1	2	3	5	6	7	7	5	3	2	-2	-3	-3	-3	-3	-2	-1	-1	1	1	-1	-1	-1	-1	-2	-2	-3	-2	-2	-2	-1	1	2	3	5	5	6	5	3	2	1	-1	-2	-3	-2	-2	-2	-2	-2	-4
2818572159
4253024223
-4	1	-1	-1	-1	-2	-1	-2	-3	-2	-3	-1	1	2	5	6	7	6	5	3	2	-1	-2	-1	-2	-2	-1	-2	-1	-1	-1	-1	-1	-1	-1	-2	-2	-3	-3	-4	-3	-3	-1	1	3	5	6	6	6	4	3	1	-2	-2	-2	-3	-2	-0
1082122231
4034919423
-1	-1	-1	-2	-2	-3	-3	-3	-2	-2	1	3	5	6	6	6	4	4	1	-1	-1	-2	-3	-2	-2	-1	-1	-1	-1	-2	-1	-3	-2	-3	-4	-3	-3	-2	1	3	4	6	6	6	4	4	2	1	15
4280418239
4026204159
15	-2	-2	-2	-3	-1	-1	-1	1	-1	-1	-1	-1	-2	-3	-4	-3	-4	-2	2	3	6	6	7	6	4	3	2	-1	-2	-3	-2	-3	-2	-1	-1	1	1	-1	-1	-2	-2	-1	-2	-2	-2	-3	-4	-4	-3	-3	-1	1	3	-15
4286456831
4026531079
-15	6	6	5	5	4	2	1	-2	-2	-2	-2	-1	-1	1	-1	-1	-2	-2	-2	-2	-2	-3	-4	-3	-4	-2	-2	2	4	5	6	5	6	4	3	3	1	1	-1	-2	-2	-3	-2	-2	-1	-1	-1	-1	-1	-4
4292869063
1946157039
-4	-2	-2	-2	-2	-2	-3	-3	-2	-1	1	3	4	5	6	5	5	4	3	2	-1	-1	-2	-1	1	1	1	1	1	2	-1	-2	-3	-3	-3	-2	-2	-2	-2	-3	-5	-4	-2	2	8	14	18	21	20	16	9	-8	-16	-21	-21	7
3959422975
4294967295
7	-12	-6	1	1	2	7	12	17	20	20	17	12	7	1	-3	-9	-11	-13	-11	-10	-7	-7	-11	-17	-25	-29	-31	-27	-21	-12	-3	3	7	9	8	7	6	4	6	8	12	17	21	22	19	13	3	-6	-15	-21	-22	-20	-15	-10	-5	-1	1	1	2	3	5	-71
4294967295
4294959103
-71	11	14	16	18	19	21	20	22	21	21	19	16	10	3	-7	-16	-24	-28	-29	-26	-22	-16	-12	-7	-3	1	6	9	10	9	5	1	-2	-4	-3	-2	-1	1	-1	-2	-4	-8	-12	-14	-16	-16	-14	-10	-5	4	7	8	8	9	9	9	9	8	7	7	7	7	5
4294967295
4294967295
5	9	9	10	10	11	11	12	11	9	8	4	-1	-4	-9	-13	-14	-13	-13	-10	-9	-6	-7	-7	-9	-12	-13	-15	-15	-15	-12	-11	-8	-8	-6	-6	-6	-4	-4	-4	-3	-4	-4	-5	-4	-4	-4	-5	-7	-8	-8	-7	-2	4	13	19	25	29	29	29	25	22	19	14	27
4294213503
4294967295
27	6	3	2	1	1	4	4	5	4	3	2	1	-2	-3	-4	-4	-5	-5	-3	5	11	17	23	24	23	20	17	14	11	10	6	-2	-12	-22	-33	-40	-45	-46	-47	-45	-41	-36	-28	-19	-9	-1	5	8	7	7	5	6	8	11	17	22	27	31	-21
4294965247
4294967295
-21	35	33	28	23	15	10	5	3	3	4	4	3	2	2	3	4	5	5	3	-3	-6	-10	-12	-16	-18	-20	-23	-25	-26	-27	-27	-26	-24	-19	-13	-6	1	7	11	12	13	13	11	11	10	9	8	7	7	7	6	7	6	4	3	1	-1	-2	-4	-4	-3	-2	6
4293916671
4026269695
6	3	5	7	10	10	10	9	8	5	2	-2	-3	-4	-4	-4	-2	-2	-1	-1	-1	-2	-2	-3	-3	-4	-4	-4	-6	-5	-5	-4	-2	4	6	8	9	8	7	5	4	1	-2	-4	-3	-3	-3	-2	-3	-2	-3	-3	-3	-2	-3	-2	-3	-3	-4	-5	1
4294967279
4294967247
1	-6	-5	-4	-2	1	3	6	8	9	8	7	6	3	2	1	-1	-2	-3	-3	-4	-3	-3	-2	-1	-1	-1	-2	-1	-3	-2	-4	-4	-5	-4	-4	-2	1	3	5	6	8	7	6	4	3	1	-1	-2	-2	-3	-3	-3	-3	-2	-1	-1	-1	-1	-2	-1	-2
4278189961
1048571903
-2	-2	-4	-3	-4	-3	-2	2	4	6	7	6	6	4	2	1	-1	-2	-4	-4	-3	-3	-1	-1	-1	-1	-1	-2	-1	-2	-1	3	5	6	8	8	8	7	5	4	3	-1	-2	-3	-3	-4	-2	-3	-2	-3	-2	-3	-3	13
4292870143
4294966781
13	-2	-3	-2	-2	-3	-2	-2	-2	-1	2	4	4	5	5	5	4	5	4	4	2	1	-3	-5	-8	-10	-11	-10	-10	-8	-8	-7	-7	-7	-7	-6	-2	2	7	11	14	13	12	7	4	1	1	3	7	9	11	10	5	-5	-8	-11	-10	-8	-6	-2	3	3
4026531839
4260364031
3	4	1	-5	-7	-10	-11	-12	-12	-12	-11	-8	-4	2	11	17	22	21	18	12	7	1	-1	-2	-3	-3	-3	-3	-2	-2	-2	-2	-2	-2	-3	-3	-2	1	2	2	1	-1	-4	-4	-4	-3	-3	-2	-3	-3	-2	-2	2	6	9	10	10	8	7	3	23
4294939615
4176484862
23	-2	-4	-5	-6	-5	-6	-4	-5	-4	-3	-3	-2	-3	-2	-2	-1	1	-1	-1	-1	-1	1	3	4	3	4	3	3	2	2	1	-2	-1	-2	-1	1	1	-1	-1	-1	-1	-2	-1	-1	-1	-24
4290772703
4227857568
-24	2	2	3	3	3	3	2	2	1	-1	-1	-2	-1	-2	-1	-1	1	1	1	1	1	1	-1	-1	-1	-1	-1	-1	-2	-2	-1	-2	-1	1	3	3	4	4	4	2	2	1	-1	-1	-1	-2	-2	-1	-1	1	1	-4
2550133745
100630479
-4	-1	-2	-2	-2	-2	-2	-2	1	1	3	4	4	3	3	2	1	-1	-1	-1	-1	-1	-1	1	-1	-1	-1	-1	-1	-2	-2	-2	-2	-1	1	2	4	4	4	3	3	2	1	-1	-1	-2	-1	3
4060086271
4286576635
3	-1	-1	-1	-1	-1	-2	-1	-1	-2	-1	-2	-1	-1	-1	-2	-2	-3	-2	-3	-1	1	1	3	3	3	3	4	3	2	3	1	2	1	2	2	2	-1	-3	-5	-6	-6	-6	-4	-2	1	1	1	-3	-7	-10	-11	-11	-9	-6	-3	1	3	-73
4244111358
1073741823
-73	4	4	4	1	1	1	2	2	2	-2	-3	-2	-2	-1	2	2	3	3	3	3	3	2	3	2	1	1	1	1	3	4	7	10	12	15	15	14	12	10	6	5	2	-1	-3	-4	-5	-6	-5	-3	-3	-2	-2	-1	-1	-2	-3	-3	-3	32
4294966779
3758096383
32	-4	-4	-4	-5	-6	-6	-6	-6	-4	-3	-1	2	5	7	8	9	9	7	6	4	1	-1	-3	-3	-3	-2	-1	1	2	1	1	-2	-1	-2	-2	-3	-2	-3	-3	-4	-5	-5	-5	-5	-3	-1	1	5	8	9	10	9	8	5	3	1	-1	-2	-3	-3	34
4143972351
3732602879
34	-2	-1	1	1	1	-1	-1	-1	-2	-2	-2	-4	-5	-6	-7	-8	-7	-6	-4	-1	2	5	7	9	9	9	7	6	4	4	1	-1	-1	-2	-1	1	1	1	1	-1	-1	-2	-2	-3	-4	-6	-6	-7	-7	-7	-5	-4	-1	2	5	8	7
4294959103
2147483567
7	10	10	9	6	5	3	1	-2	-2	-4	-6	-5	-7	-6	-5	-4	-2	2	5	6	6	4	1	-2	-4	-7	-9	-8	-6	-4	3	8	10	10	10	8	4	1	-2	-3	-4	-4	-2	-2	-2	-1	-3	-3	-4	-4	-3	-3	-2	-1	-1	-1	-1	-1	-1	-3
4286578686
4287626941
-3	-2	-2	-2	-2	-3	-3	-2	2	6	8	8	9	9	9	9	11	13	13	13	10	5	-2	-8	-14	-16	-16	-12	-8	-2	2	-1	-5	-8	-11	-10	-8	-5	-2	-1	-1	-3	-3	-4	-6	-7	-6	-5	-3	-1	1	-1	-2	-2	-1	1	-62
4294901759
4294967295
-62	2	3	2	2	3	3	6	6	7	7	6	5	3	2	-1	-2	-3	-3	-3	-4	-3	-3	-1	1	1	3	1	1	-1	-2	-4	-4	-4	-4	-3	-4	-2	-2	-1	1	2	4	4	4	3	2	2	1	1	2	2	3	4	4	5	5	6	5	5	3	2	2	21
4278190079
4261150458
21	1	1	3	2	2	1	-2	-2	-2	-3	-3	-4	-4	-4	-5	-4	-4	-3	-4	-3	-3	-3	-3	-3	-3	-3	-4	-5	-4	-5	-4	-4	-3	-2	-1	-1	-1	-3	-3	-5	-5	-3	5	10	14	16	16	13	9	5	2	-1	-2	-2	-1	-1	1	-2
4013817855
2499799035
-2	1	-1	-1	-1	-1	-1	-1	-1	-1	-1	2	3	4	3	2	2	2	1	2	2	1	1	-1	-1	-1	-2	-1	-1	1	1	-1	-1	-1	-1	-2	-2	-2	-2	-2	-2	-1	2	2	2	4	2	3	2	1	-1	-1	8
3556307367
4294836218
8	-2	-1	1	1	1	1	2	1	1	-1	-1	-1	-1	1	1	1	1	2	3	4	5	4	2	-1	-3	-5	-7	-7	-6	-5	-4	-3	-2	1	2	3	2	3	2	2	1	2	2	2	2	1	1	1	18
2684354495
4294901759
18	-1	-2	-4	-5	-5	-5	-5	-4	-3	-3	-2	-1	1	1	4	4	5	5	5	4	3	1	-1	-3	-4	-5	-7	-6	-6	-4	-1	1	5	6	7	7	8	7	6	6	5	3	1	-2	-2	-4	-6	-9	-11	-13	-15	-14	-13	-11	-8	-6	-4	-2	-1	-83
4294963181
4293220340
-83	3	5	6	7	7	9	9	9	10	10	8	8	6	5	3	2	1	1	-1	-2	-2	-2	-1	-1	1	1	-1	-2	-1	-2	-1	-1	-1	-1	-2	-1	-2	-1	-1	1	1	1	1	-1	-1	-1	-2	-1	-1	-1	-1	-3
2306867198
4294967295
-3	1	1	1	1	2	3	3	4	3	4	4	3	5	4	4	4	4	3	2	2	1	2	1	1	-1	-1	-2	-1	-3	-2	-4	-4	-6	-6	-8	-9	-9	-11	-10	-10	-11	-9	-8	-6	-3	-1	3	5	7	9	8	8	7	5	4	3	-5
3983548319
4158730233
-5	1	-1	-1	-1	1	1	1	1	-1	-1	-1	-1	-1	-1	1	2	2	3	3	3	2	2	1	-1	-2	-3	-2	-2	-1	-1	-1	-1	-1	-1	-1	-1	-1	-1	-1	-1	1	-9
4286578687
4294442985
-9	3	4	4	4	4	2	1	-1	-1	-1	-1	1	2	3	3	3	1	1	-1	-2	-2	-3	-4	-3	-3	-3	-2	-3	-2	-3	-3	-2	-1	1	2	4	5	5	4	4	2	1	-1	-2	-3	-2	-2	-2	-1	-1	-1	-1	-2	-1	-2	-1	-1	-1	-10
4278181674
4294967037
-10	-1	-2	-2	-2	-2	-1	2	3	4	5	3	3	3	1	1	1	-1	-1	-1	-2	-2	1	1	-1	-1	-1	-1	-1	-1	-1	-1	-2	-1	-2	-1	-1	1	1	3	3	3	4	3	2	3	2	1	-1	-1	-2	-2	-1	-1	1	5
3615490035
4066377471
5	1	-1	-1	-1	-1	-1	-2	-1	-2	-2	-3	-1	-1	-1	1	2	2	3	4	3	3	2	2	1	-1	-1	-1	-1	-1	-1	1	1	-1	-1	-1	-2	-1	-2	-2	-2	-2	-1	-1	-1	1	2	3	4	3	3	2	2	10
3204663279
4294492159
10	-2	-1	-2	-2	-2	-1	-1	-1	-1	-1	-2	-1	-3	-1	-1	1	2	4	4	4	5	3	3	1	1	-1	-2	-2	-2	-2	-2	-1	1	-1	-1	-1	-1	-1	-1	-1	-2	-1	-1	-2	-1	-1	-1	-12
4291793215
4227759794
-12	1	2	2	4	3	4	3	2	2	-2	-2	-2	-1	-1	1	-1	-1	-1	-1	-2	-2	-1	-2	-1	-2	-1	-1	1	2	3	3	4	3	2	2	1	-1	-2	-1	-2	-1	-1	1	1	1	-1	3
3353339856
729742975
3	-1	-1	-2	-3	-2	-1	1	2	3	4	3	3	2	2	-1	-1	-2	-1	-1	-1	-1	-1	-1	-1	-1	-1	-2	-1	-2	-1	1	2	2	3	2	1	2	-1	-2	-2	-2	-2	-2	-1	-5
3529502716
4192714687
-5	1	1	1	-1	-1	-1	-1	-2	-1	-2	-1	-2	1	1	2	3	3	3	2	3	2	1	-1	-1	-1	-1	-1	1	1	1	1	-1	-1	-1	-1	-1	-2	-1	-2	-2	-2	-2	1	2	2	3	3	2	4
4292434919
4277670911
4	1	-1	-1	-2	-2	-2	-2	-1	-1	-1	-1	-1	-1	-1	-1	-1	-1	-1	-2	-1	2	2	4	4	4	4	3	3	2	1	-1	-2	-1	-1	-1	-1	-1	-1	-1	-1	-1	-1	-1	-2	-1	-1	-8
3221193391
4026268325
-8	2	2	3	3	3	3	2	1	1	-1	-2	-2	-1	-2	-1	-1	-1	-1	-1	-1	-1	-2	-2	-2	-2	1	2	3	4	4	3	3	2	2	-1	-2	-2	-2	-1	-1	-1	-1	-1	-1	-1	-1	-3
4294959042
1067449599
-3	-2	-2	-2	-2	-1	-1	1	2	2	4	4	3	3	2	1	1	1	-1	-1	-2	-2	-1	-2	-1	1	-1	-2	-2	-1	-2	-2	-1	2	3	4	4	5	3	4	2	2	1	1	-1	-1	-1	-1	-3	-3	-3	-3	3
4294835770
2187329519
3	-3	-2	-1	-2	-2	-2	-2	-2	-2	-2	-2	-2	-1	3	3	5	5	5	4	2	2	-1	-1	-1	-1	1	-1	-1	-1	-1	-2	-2	-2	-2	-1	-1	1	2	3	3	3	3	2	1	-1	-1	-1	-1	3
2812674047
2659581919
3	1	1	1	1	1	1	1	-1	-2	-2	-4	-4	-5	-3	-3	-1	1	2	3	4	4	5	3	2	2	-1	-1	-1	-1	-1	-1	-1	-1	-1	-1	-2	-2	-3	-3	-2	-2	-1	1	3	3	3	3	2
4227080191
4286447999
2	2	1	1	-1	-2	-1	-1	-1	-1	1	1	-1	-1	-1	-1	-1	-2	-2	-3	-3	-3	-1	1	2	3	4	4	4	4	2	2	1	-1	-1	-2	-2	-1	-1	-1	-1	-2	-1	-2	-2	-3	-2	-15
2683433487
4294959017
-15	2	3	4	4	4	3	3	1	2	-2	-1	-2	-1	-1	1	-1	-1	-1	-2	-2	-2	-3	-2	-3	-2	-1	1	1	2	3	4	3	4	3	2	3	1	-1	-1	-2	-2	-1	-1	1	1	-1	5
3757572031
3221225471
5	-1	-1	-1	-1	-2	-2	-2	-2	-1	-1	1	1	2	4	5	7	7	6	6	4	3	1	1	2	3	5	6	6	4	-3	-6	-10	-10	-10	-9	-7	-5	-5	-4	-5	-6	-6	-5	-2	1	6	9	10	10	7	3	-2	-6	-8	-10	-10	-9	-10	-11	-57
4294959099
4293918687
-57	-8	-5	-2	2	6	11	16	19	21	19	15	8	1	-5	-7	-7	-4	2	3	2	-1	-3	-4	-5	-4	-2	-1	-2	-3	-6	-6	-6	-4	-1	1	3	3	3	3	2	-1	-2	-4	-4	-5	-5	-4	-3	-3	-2	-3	-3	-4	-3	2	5	8	8	9	-10
4026531836
4294958719
-10	6	3	-4	-6	-9	-10	-9	-10	-9	-8	-9	-9	-8	-7	-5	-4	-2	-2	-2	-4	-5	-5	-7	-7	-6	-5	-4	-2	1	3	5	8	11	13	16	17	19	18	19	17	15	13	10	7	4	1	-1	-2	-2	-2	2	2	3	3	2	2	1	47
3221225469
4294950911
47	-1	-2	-2	-4	-6	-6	-7	-8	-5	-2	1	5	9	9	11	9	9	7	4	3	1	-2	-3	-3	-3	-2	-1	-1	-1	-2	-2	-2	-3	-3	-4	-4	-4	-4	-5	-5	-6	-6	-7	-6	-4	-3	3	5	8	8	9	8	6	5	3	1	-1	-2	-2	-3	32
4286578687
4286054399
32	-1	-1	1	2	1	1	-1	-2	-1	-2	-3	-2	-3	-4	-4	-5	-6	-6	-5	-4	-1	2	5	7	9	8	8	7	5	3	2	1	-1	-3	-3	-4	-3	-2	1	1	1	-1	-1	-2	-2	-3	-2	-3	-4	-4	-5	-6	-5	-5	-4	-2	1	3	6	7	6
4277985279
3757831935
6	9	7	6	5	3	2	-2	-3	-3	-3	-3	-1	1	1	-1	-2	-2	-2	-2	-2	-3	-2	-4	-4	-5	-5	-5	-3	-2	3	6	7	8	8	8	7	5	3	1	-1	-2	-3	-2	-2	-1	1	1	1	-1	-1	-1	-1	-2	-3	-3	13
4294967295
3363828735
13	-5	-5	-6	-5	-5	-4	-3	-2	1	3	5	6	5	6	4	4	3	2	2	1	1	2	2	4	5	6	5	5	4	3	1	1	1	-1	-1	-3	-5	-6	-7	-7	-6	-5	-4	-1	-1	-1	-3	-3	-5	-7	-8	-8	-10	-9	-8	-55
4294967295
4294901759
-55	-5	-3	-1	2	4	6	8	9	10	9	8	6	5	5	4	3	4	3	2	2	2	1	2	1	2	1	1	-1	-1	-3	-4	-6	-7	-8	-8	-9	-7	-8	-6	-7	-5	-6	-5	-5	-4	-2	3	6	8	8	8	6	2	-1	-2	-4	-4	-4	-1	-1	2	3	-33
4282646469
4294705096
-33	5	6	4	4	2	1	1	1	1	1	1	2	2	2	2	2	1	2	1	1	-1	-1	-2	-1	-1	1	1	3	3	4	4	3	3	2	2	-1	-1	-3	-4	-4	-4	-4	-3	-3	-2	-1	-1	-1	-2
3196059643
4160748543
-2	1	2	1	1	2	-2	-3	-3	-3	-3	-3	-2	-2	-2	-2	-3	-3	-4	-4	-4	-5	-3	-1	-1	1	-1	-1	-3	-3	-3	-2	1	3	4	5	6	5	6	6	6	5	6	7	6	5	4	3	-3	-4	-6	-7	-6	-7	-5	-3	-2	-1	-26
3581870079
3825205247
-26	1	1	1	1	-1	-1	-1	-2	-2	-2	1	3	6	9	10	11	11	9	7	4	4	1	1	1	-1	-1	-1	-1	-1	-1	-1	-2	-3	-3	-3	-4	-5	-5	-6	-5	-5	-4	-4	-4	-3	-4	-2	-2	-1	1	2	3	2	2	1	-14
4280243183
4267852287
-14	-1	-3	-2	-3	-2	-2	-2	1	1	1	1	1	1	1	-1	-1	-1	-1	-1	1	3	3	5	5	5	4	4	3	2	1	-1	-1	1	-1	-1	-1	-1	-2	-3	-2	-2	-2	-1	-8
4291801983
4294846506
-8	2	2	3	3	3	3	3	2	1	-2	-1	-1	-1	-1	1	-1	-1	-1	-1	-1	-2	-2	-2	-2	-2	-2	-2	-2	-1	-1	1	1	3	4	3	4	3	2	2	1	-1	-1	-1	-1	-1	4
4290769908
670957180
4	-1	-1	-2	-3	-2	-3	-1	-2	1	2	3	3	3	3	2	2	1	1	-1	-1	-1	-1	-1	-1	-1	-1	-1	-1	-1	-2	-2	-3	-3	-2	-2	1	2	4	4	4	3	3	1	-1	-2	-1	-2	-1	0
1497358323
4179099647
1	1	-1	-1	-1	-1	-1	-1	-2	-1	-1	-1	1	1	3	3	4	4	3	3	2	-1	-1	-2	-1	-1	-1	-1	-1	-1	-1	-2	-2	-3	-3	-4	-3	-3	-2	-1	-1	1	2	3	4	4	4	4	3	8
4013719549
4280049727
8	1	1	-1	-1	-1	-1	1	1	1	1	-1	-2	-1	-2	-1	-2	-2	-2	-2	-3	-3	-2	-1	1	1	3	2	3	2	2	2	1	-1	-1	-1	1	1	-1	-1	-1	-1	-2	-1	-6
4026137152
4269789149
-6	-2	-1	1	2	3	3	3	2	3	1	1	-2	-2	-2	-2	-2	-1	1	1	-2	-2	-2	-2	-2	-2	-1	1	2	3	4	3	3	2	2	2	-2	-2	-3	-2	-2	-1	1	1	1	1	1
2952789492
100646895
1	-1	-1	-1	-1	-2	-2	-2	-2	-2	-1	1	2	3	4	4	4	3	3	1	-1	-2	-2	-2	-2	-1	-1	-1	-1	-1	-1	-1	-2	-2	-2	-1	-1	1	3	3	3	4	3	2	1	1	-1	-1	-2	-2	1
3240624125
4232216575
1	-1	-1	-1	-1	-1	-1	-2	-3	-2	-1	-1	1	2	3	3	4	4	3	1	1	-1	-1	-2	-2	-2	-1	-2	1	-1	-1	-1	-1	-2	-2	-1	-1	1	2	2	3	4	4	3	2	11
3752329183
4158971891
11	1	-1	-1	-2	-1	-2	-1	-1	-1	-1	-1	-1	-2	-1	-1	-2	-1	-2	-2	-1	-2	2	3	3	5	4	3	3	2	1	-1	-2	-2	-1	-2	-1	1	-1	-1	-1	-1	-1	-1	-2	-2	-2	-1	-1	2	2	-4
4294608894
2147448831
-4	3	3	3	3	1	1	-1	-1	-2	-1	-2	-1	-1	1	-1	-1	-2	-1	-2	-1	-2	-2	-2	-1	3	3	4	4	4	3	1	1	1	-1	-2	-2	-2	-1	-1	1	1	1	1	-1	-1	-1	-1	-2	-2	-2	-1	-2	-2	-10
3757302527
4194205516
-10	-1	1	2	3	3	3	3	3	2	2	-1	-1	-2	-1	-2	1	-1	-1	-1	-1	-1	-1	-1	-2	-2	-1	-2	-2	-1	2	2	3	4	4	3	3	2	-1	-1	-2	-2	-1	-1	-1	1	1	-1	2
4286572512
3757965054
2	-1	-1	-1	-1	-2	-1	-2	-1	1	1	1	3	3	4	4	3	2	-2	-1	-2	-1	-1	-1	-1	-1	-1	-1	-1	-1	-1	-1	-2	-2	-3	-1	-1	1	3	4	4	4	3	2	2	-1	-1	-2	-2	-2	-1	-1	2
3084885991
3944217598
2	1	-1	-1	-1	-1	-1	-1	-2	-1	-2	-3	-2	-1	2	3	3	4	3	4	2	2	-1	-2	-2	-1	-1	-1	1	1	1	-1	-1	-1	-2	-2	-2	-1	-2	-1	1	2	3	4	4	3	3	2	1	13
4294836223
4287102975
13	-2	-2	-3	-2	-1	-1	-1	1	2	1	2	1	1	-1	-2	-1	-2	-3	-3	-4	-3	-3	-1	1	1	3	4	4	3	3	2	1	-1	-1	-2	-3	-2	-1	-1	-1	-2	-2	-3	-3	-3	-3	-4	-4	-5	-6	-5	-6	-3	-2	1	5	7	9	-23
4283420927
3221220861
-23	10	8	7	5	3	2	1	-1	1	1	1	1	1	1	1	-1	-2	-2	-4	-3	-4	-3	-3	-1	1	2	3	4	3	2	1	-1	-2	-3	-4	-4	-3	-3	-3	-1	-2	-1	-1	1	1	1	2	2	2	1	-1	-9
4294180533
4294967215
-9	-1	-2	-1	1	2	4	4	4	4	3	2	-1	-2	-2	-3	-2	-3	-2	-2	-1	-1	1	1	1	-1	-1	-2	-3	-4	-3	-2	-1	1	2	5	6	8	8	8	7	5	3	1	-1	-2	-2	-3	-2	-2	-2	-1	-1	-1	-2	-2	9
4294963199
4294966783
9	-3	-2	-3	-3	-3	-3	-3	-2	-1	1	3	5	5	6	6	5	3	2	-1	-3	-3	-3	-2	-2	-1	-2	-1	-2	-2	-3	-2	-2	-2	-2	-1	-2	-2	-2	-3	-4	-3	-3	-2	2	4	7	8	8	7	6	3	2	-2	-2	-3	-2	-2	-2	-1	-1	-1	-3
4294967295
4294959101
-3	-2	-2	-3	-3	-3	-2	-3	-3	-2	-3	-4	-3	-3	-1	1	3	6	8	8	8	6	5	2	1	-1	-3	-5	-5	-6	-6	-5	-4	-4	-4	-4	-4	-5	-5	-4	-4	-4	-4	-3	-4	-4	-4	-5	-4	-3	3	6	9	10	11	11	10	9	8	5	2	-1	-16
4160684031
3745513471
-16	-3	-3	-1	1	1	2	2	2	3	2	3	1	1	-3	-3	-5	-5	-4	-2	2	4	8	11	11	12	11	10	8	7	4	3	-2	-2	-3	-2	-1	1	-1	-1	-2	-2	-1	-1	-1	-1	-2	-4	-5	-6	-6	-5	-4	-2	2	5	8	9	10	55
4294639615
4292855807
55	8	6	4	2	1	-2	-2	-3	-4	-2	-2	-2	-1	-1	-1	-2	-2	-3	-2	-4	-3	-5	-6	-7	-7	-7	-7	-5	-3	1	3	6	8	9	9	8	5	4	2	-2	-2	-3	-3	-3	-2	-1	-1	-1	-2	-2	-2	-2	-2	-3	-2	-3	-3	5
4294917119
3825205247
5	-4	-5	-3	-3	-1	2	5	7	10	11	10	8	7	4	3	-2	-1	-2	-1	1	1	2	3	2	3	2	3	2	2	1	1	-1	-1	-2	-4	-9	-13	-18	-21	-23	-22	-19	-15	-14	-13	-13	-12	-11	-8	-2	4	10	16	20	23	24	19	-20
3221225470
4294967167
-20	-11	-19	-23	-22	-17	-12	-6	-2	1	4	6	7	8	8	7	8	10	12	16	17	19	18	15	13	9	7	5	3	1	-1	-1	-1	-1	-1	-1	-1	-1	-1	-3	-2	-4	-3	-3	-4	-4	-4	-4	-5	-5	-4	-4	-2	-1	3	3	5	6	5	5	3	34
4294954999
4294965246
34	1	-1	-1	-3	-4	-4	-3	-3	-1	-1	-1	-1	-1	-2	-2	-2	-1	1	-1	-1	-2	-3	-3	-2	-2	2	2	4	5	5	4	4	2	1	-1	-3	-3	-4	-4	-3	-2	-2	-2	-2	-1	-2	-2	-1	-1	-1	-1	-2	-2	-2	-2	-2	-1	-2	-27
4292844031
4026005575
-27	3	5	5	7	5	5	4	3	1	-1	-2	-2	-2	-2	-1	1	1	-1	-1	-1	-1	-1	-1	-2	-3	-3	-3	-3	-1	2	3	4	4	4	3	3	1	-1	-1	-3	-2	-3	-1	-1	-1	1	-1	-1	-2	-12
4227858307
4294967210
-12	-3	-3	-2	-2	1	3	4	5	5	4	4	3	1	1	-1	-2	-1	-2	-2	-2	-1	-1	-1	-1	-1	-1	-1	-2	-2	-2	-3	-2	-1	-1	2	3	4	5	5	3	3	1	1	-1	-1	-1	-2	-2	-1	-1	1	1	1	-0
1072691191
2684354044
-1	-1	-1	-2	-2	-3	-2	-2	-1	2	4	4	5	4	4	3	1	-1	-2	-3	-3	-2	-2	-2	1	1	1	1	-1	-1	-2	-1	-3	-3	-3	-2	-2	-1	1	2	4	5	4	4	3	2	1	-2	-2	-3	-3	-2	-1	-1	-6
3288334335
234881023
-6	1	-1	-1	-1	-2	-3	-2	-2	-1	1	2	4	5	5	5	3	2	1	-1	-1	-2	-2	-2	-1	-2	-1	-1	1	-1	-1	-1	-2	-3	-3	-2	-2	-1	2	3	5	5	6	5	3	2	1	-1	-1	-3	-2	-2	-2	-2	-1	-1
2852061118
570326913
-1	-1	-1	-1	-1	-1	-2	-3	-3	-2	-2	1	3	5	6	5	5	3	2	1	-2	-1	-2	-2	-2	1	-1	-1	-1	-2	-2	-2	-2	-2	2	4	5	6	5	4	3	2	1	25
4294967295
4294967295
25	1	1	2	3	3	4	5	4	4	2	1	1	1	3	3	5	7	8	10	10	12	11	10	10	10	9	5	-2	-12	-23	-35	-42	-46	-46	-45	-41	-39	-37	-34	-30	-25	-20	-13	-5	2	10	16	20	24	26	29	31	36	39	42	43	42	36	29	22	13	6	1	141
4290772975
4294950911
141	-4	-3	-2	-1	1	3	2	2	-2	-3	-3	-2	-1	1	1	2	-2	-4	-8	-9	-10	-9	-5	-2	-1	-4	-7	-12	-15	-18	-18	-18	-16	-16	-14	-15	-17	-20	-27	-35	-42	-47	-48	-43	-31	-16	15	25	32	36	37	37	39	39	38	37	33	28	23	17	51
4278190079
4291297279
51	9	6	3	1	1	-1	-1	-1	-1	-1	-3	-4	-4	-6	-5	-5	-4	-3	-3	-3	-3	-3	-2	-1	1	3	3	4	3	2	1	-1	-1	-3	-3	-3	-3	-2	-2	-1	-1	-1	-1	-2	-1	-2	-3	-2	-3	-3	-3	-2	-2	-1	1	3	3	5	4	9
4294254589
4286448639
9	4	2	2	1	-1	-1	-2	-3	-2	-1	-1	1	1	-1	-1	-1	-2	-2	-2	-2	-3	-3	-3	-1	2	3	5	5	4	5	3	2	2	-1	-2	-2	-2	-2	-2	-1	-1	-1	-1	-1	-2	-2	-2	-3	-2	-10
4294704399
4290768879
-10	-2	-2	1	1	3	5	4	5	5	3	2	2	-1	-2	-2	-3	-2	-1	-1	1	1	-1	-1	-1	-2	-1	-2	-3	-2	-2	-3	-3	-2	-2	2	3	5	5	4	4	3	3	1	-1	-2	-3	-2	-3	-1	-1	1	1	1	1	3
2516451327
3212836851
3	-1	-1	-1	-2	-2	-2	-3	-2	-2	1	3	4	5	4	5	4	3	1	1	-1	-2	-3	-3	-2	-2	-1	-1	1	1	1	1	1	-1	-1	-1	-2	-2	-2	-3	-4	-3	-3	-3	-1	1	3	4	5	5	4	4	2	-2	-2	4
4055498623
4287125495
4	-2	-1	-1	1	1	1	1	1	-1	-2	-2	-2	-3	-3	-3	-3	-1	1	3	4	5	5	4	2	2	1	-1	-1	-2	-3	-2	-2	-2	1	-1	-1	-2	-1	-3	-3	-3	-2	-2	1	3	5	-4
4261277695
4291812919
-4	5	5	4	3	1	-1	-2	-3	-2	-2	-2	-1	1	1	1	1	-2	-1	-2	-1	-2	-1	-1	-2	-2	-2	-2	-2	-1	1	2	4	5	5	5	4	3	2	-2	-2	-3	-3	-3	-1	1	1	1	1	-1	-1	-2	-1	-3	-5
4227825383
2147472383
-5	-3	-3	-3	-1	1	3	5	5	5	4	4	3	1	1	-1	-2	-3	-2	-1	-1	2	1	1	-1	-1	-1	-1	-1	-2	-2	-3	-3	-3	-2	-1	2	3	4	6	6	5	3	1	-1	1	2	4	4	4	4	4	2	1	1	45
4294967294
201326495
45	-1	-2	-1	-2	-2	-2	-4	-5	-6	-6	-5	-4	-3	-1	1	2	2	2	2	1	-1	-1	-3	-3	-4	-3	-3	-2	-2	-1	-1	-1	-1	-1	-2	-2	-2	-2	-3	-1	-1	1	2	3	4	4	4	3	2	1	-2	-2	-2	-3	-2	-17
4231004159
4087349247
-17	-1	1	1	1	1	-1	-1	-1	-1	-3	-2	-2	-1	-1	2	3	4	6	6	5	5	3	1	1	-1	-2	-2	-3	-2	-2	1	2	1	-1	-1	-1	-2	-1	-2	-1	-2	-2	-1	-2	-1	-1	1	2	4	5	5	5	4	3	13
4287684607
4227309567
13	-1	-2	-2	-3	-2	-2	-2	-1	1	-1	-1	-1	-1	-2	-2	-3	-2	-3	-1	-1	2	2	5	5	5	5	4	3	1	-2	-2	-2	-3	-2	-1	1	1	1	1	-2	-1	-2	-2	-1	-1	-1	-2	-2	-3	-2	-2	-1	-16
4294949375
4160618183
-16	3	4	6	5	4	4	3	1	1	-1	-1	-3	-3	-3	-2	-1	1	2	1	-1	-2	-2	-1	-2	-1	-2	-2	-2	-3	-2	-2	-2	1	3	5	5	6	5	4	3	2	-1	-2	-3	-2	-3	-1	-1	1	2	1	-2	-1	-2	0
2146434032
2550132727
-1	-1	-1	-1	-2	-3	-3	-3	-2	-1	3	4	5	6	5	4	3	2	1	-1	-1	-3	-2	-2	-1	1	-1	-2	-1	-2	-1	-1	-1	-2	-1	-2	-2	-3	-2	-2	-1	2	3	5	6	6	5	4	2	-1	-1	-3	8
4140826623
4227581951
8	-2	-2	-1	-1	1	1	1	-1	-1	-1	-1	-2	-1	-2	-1	-1	-2	-1	-2	-2	-2	-2	-1	1	3	4	5	5	5	4	3	1	-1	-2	-3	-2	-2	-2	-1	1	1	1	2	-2	-1	-2	-2	-1	-1	-2	-1	-1	-2	-2	-13
4026530255
4294965246
-13	-2	-1	2	3	4	5	5	4	4	2	1	-1	-1	-2	-2	-2	-2	-1	-1	1	1	1	-1	-1	-1	-1	-2	-1	-1	-2	-2	-2	-3	-2	-2	-1	-1	2	2	5	5	5	5	4	3	1	-1	-2	-2	-3	-2	-2	-1	-1	1	1	3
3221209063
4160191999
3	-1	-1	-1	-1	-2	-1	-2	-1	-1	-2	-2	-3	-3	-3	-1	2	4	4	5	4	3	2	1	1	-2	-2	-2	-4	-4	-3	-2	2	6	9	9	9	7	4	-1	-3	-1	1	1	1	1	-1	1	1	2	2	3	2	2	4	3	53
4294967295
4294967289
53	2	2	-1	-3	-5	-5	-6	-6	-6	-5	-4	-5	-5	-7	-9	-13	-15	-18	-18	-17	-14	-8	-1	4	11	15	19	21	22	20	15	10	2	-4	-10	-13	-16	-16	-14	-12	-7	-3	1	7	12	18	24	30	32	33	30	25	19	14	9	6	4	2	2	2	-2	194
4294967295
4294967295
194	-7	-13	-19	-27	-33	-40	-44	-48	-49	-48	-42	-31	-17	-3	9	16	19	16	12	7	3	5	9	17	26	35	41	41	37	30	22	10	-2	-15	-28	-38	-43	-39	-30	-17	-3	8	17	23	28	31	33	32	29	24	18	10	4	-2	-9	-13	-20	-27	-36	-44	-54	-61	-66	-225
4294967295
4294967291
-225	-55	-39	-18	4	24	40	48	51	49	45	40	36	30	26	22	19	16	15	13	12	9	5	-2	-10	-18	-25	-34	-40	-45	-47	-42	-33	-18	-3	10	16	17	14	12	11	15	23	31	36	36	30	20	6	-5	-14	-18	-19	-16	-11	-5	3	9	12	12	8	-10	-20	23
4294967295
4160684031
23	-39	-47	-51	-53	-47	-40	-27	-14	-2	9	18	25	30	31	28	23	16	11	8	7	9	11	14	15	15	14	11	10	8	6	4	2	1	1	-1	1	3	5	7	8	7	7	5	2	2	2	2	4	5	5	4	3	-1	-4	-7	-11	-12	-13	-12	-12	-9	12
4294453247
4026499071
12	-7	-4	-4	-4	-3	-4	-5	-5	-4	-4	-2	-1	-1	-1	-2	-2	-3	-4	-6	-7	-8	-8	-9	-7	-7	-5	-2	5	10	15	22	26	28	29	26	22	17	10	6	-4	-5	-7	-6	-6	-6	-5	-5	-4	-3	-1	-1	1	2	2	64
4278190079
4294967295
64	2	4	4	3	4	1	-3	-6	-9	-11	-12	-15	-15	-16	-15	-14	-11	-6	-1	4	6	8	6	3	-1	-4	-6	-8	-9	-9	-8	-6	-2	2	5	9	12	13	13	14	13	12	11	9	8	7	8	8	8	8	6	3	-1	-3	-5	-4	-4	-2	-1	-1	-4	-5	54
4294967295
4294967295
54	-9	-11	-13	-15	-16	-18	-20	-21	-23	-25	-26	-27	-27	-23	-15	-1	15	33	48	59	62	60	53	44	32	22	12	3	-5	-10	-15	-18	-20	-20	-19	-17	-16	-14	-13	-12	-11	-11	-11	-10	-10	-9	-9	-8	-8	-8	-8	-8	-7	-7	-4	-3	1	5	9	12	14	14	13	-26
4294960895
4294967295
-26	8	4	2	1	1	3	5	8	11	12	12	11	9	7	5	4	3	2	-2	-1	2	4	8	10	11	10	8	3	-4	-10	-17	-22	-24	-25	-24	-22	-23	-23	-24	-26	-25	-23	-19	-13	-6	2	9	15	18	20	19	17	14	12	9	7	5	5	3	3	-33
4294967295
4093636606
-33	4	4	5	6	5	6	5	5	5	2	1	-1	-2	-4	-5	-2	-1	3	5	6	7	7	5	4	2	1	-1	-3	-4	-4	-4	-3	-2	-2	-1	-1	-2	-1	-2	-1	-1	-1	-1	-2	-3	-3	-4	-2	2	5	7	7	7	6	3	2	-1	-1	-1	31
4294966783
4294966783
31	6	6	7	5	2	1	-2	-3	-5	-4	-6	-6	-5	-5	-5	-4	-3	-4	-4	-3	-3	2	4	6	6	6	4	1	-2	-3	-6	-5	-5	-4	-3	-1	-1	2	2	3	3	2	1	-1	-2	-3	-4	-3	-2	-3	-2	-1	1	3	5	5	7	6	6	5	3	31
3816816607
4001366015
31	1	1	-1	-1	-1	-1	-1	-2	-3	-3	-3	-3	-3	-4	-5	-6	-8	-7	-7	-5	-3	4	6	7	8	7	6	5	2	-2	-2	-2	3	3	4	5	5	5	5	5	4	3	3	2	2	4	4	5	7	7	8	8	9	10	9	134
4294967295
4278190079
134	6	2	-4	-13	-20	-28	-31	-32	-31	-30	-29	-31	-33	-38	-40	-43	-41	-35	-23	-5	14	31	43	46	41	33	24	18	17	19	23	24	25	24	20	15	9	5	-1	-2	2	5	11	14	17	18	16	14	9	4	-2	-10	-16	-24	-30	-37	-39	-38	-31	-19	-3	11	-42
4294967295
4292837311
-42	28	27	21	13	4	-2	-5	-7	-6	-4	-1	1	2	1	-1	-2	-4	-3	-3	-2	-2	-2	-3	-4	-4	-5	-4	-5	-3	-3	-3	-1	-1	-2	-3	-5	-6	-7	-7	-5	-3	2	3	3	2	1	-1	-2	-3	-2	-3	-3	-2	-2	1	2	2	3	2	2	-55
4294967295
4294967295
-55	4	6	7	8	9	10	13	14	16	17	17	18	16	14	13	11	10	8	7	4	1	-5	-9	-15	-19	-23	-28	-31	-34	-35	-34	-31	-28	-23	-20	-15	-8	1	12	18	18	9	-3	-17	-26	-25	-17	-4	7	15	20	21	23	24	27	29	29	25	19	11	3	-2	-3	24
4294967295
3221225435
24	5	10	15	17	17	14	7	1	-7	-12	-15	-14	-10	-7	-5	-5	-9	-8	-5	3	11	18	23	22	24	27	30	30	28	23	16	8	-4	-8	-10	-13	-16	-19	-22	-24	-24	-23	-19	-15	-13	-11	-14	-19	-24	-30	-32	-32	-28	-20	-12	-5	2	2	-2	-4	-166
3758096383
4294967295
-166	-2	2	5	7	8	9	9	9	8	6	2	-2	-8	-15	-21	-23	-23	-20	-14	-8	-2	5	13	23	33	42	48	50	48	45	42	42	45	49	51	49	40	27	7	-14	-33	-49	-62	-69	-70	-66	-55	-38	-19	-4	6	6	-2	-13	-23	-29	-26	-20	-9	-2	3	5	-159
4294967295
4294705150
-159	2	1	1	1	1	4	6	10	14	17	17	16	14	12	11	12	16	20	24	25	24	21	16	9	2	-3	-8	-10	-11	-11	-12	-10	-11	-11	-11	-12	-11	-10	-9	-7	-4	-2	-1	1	-1	-2	-2	-3	-2	-1	-2	-1	-2	-4	-4	-5	-5	-4	-4	-2	-1	-60
3489660927
4294967287
-60	1	-1	-2	-3	-4	-4	-5	-6	-5	-6	-5	-5	-7	-9	-14	-16	-19	-16	-10	-1	11	21	31	37	39	39	35	31	30	29	30	33	32	29	22	14	5	-3	-8	-11	-12	-14	-15	-20	-24	-29	-31	-30	-24	-14	-4	3	5	1	-4	-9	-8	14	26	31	119
4294967287
4160749567
119	12	-9	-31	-45	-47	-37	-21	-1	16	28	34	36	35	27	13	-5	-25	-37	-40	-33	-21	-7	3	6	4	2	-1	4	8	13	18	17	15	8	-6	-9	-11	-9	-8	-7	-8	-9	-8	-7	-5	-4	-4	-4	-4	-1	2	8	12	15	14	13	9	7	6	7	8	62
4294967295
4286545919
62	5	2	-4	-9	-12	-15	-15	-13	-11	-6	-3	-2	-1	-3	-5	-8	-9	-7	-4	1	6	9	12	11	8	6	3	3	3	2	3	1	1	-1	-1	-3	-2	-2	-1	3	4	5	5	5	4	2	1	2	6	8	12	13	13	10	7	3	-1	-3	-5	-7	-10	66
4294963199
4294967295
66	-15	-17	-21	-22	-22	-21	-20	-19	-19	-22	-25	-29	-29	-29	-23	-17	-10	-4	4	6	9	13	16	20	21	23	24	27	30	36	40	45	46	46	40	31	16	-5	-25	-45	-57	-59	-51	-34	-14	5	19	25	26	22	18	11	6	4	1	3	4	7	9	12	13	11	111
4294967295
3758096383
111	5	2	-2	-5	-6	-7	-7	-7	-7	-7	-9	-9	-9	-8	-7	-6	-4	-3	-3	-3	-4	-4	-3	-4	-3	-2	-1	-1	-2	-2	-2	-2	-1	1	1	2	1	2	3	6	8	10	11	10	7	3	-1	-4	-8	-9	-9	-9	-7	-5	-4	-1	-1	-1	-1	-1	-3	-3	-27
4292867047
2952790015
-27	-3	-3	-1	-2	-1	-2	-2	-2	-1	3	5	8	8	8	8	6	4	3	-2	-2	-3	-2	-1	1	1	1	1	-1	-1	-1	-1	-1	-3	-4	-5	-6	-5	-4	-2	1	4	6	8	7	8	7	6	7	8	8	9	8	6	5	3	1	69
4294965247
4293918591
69	-3	-4	-7	-7	-9	-9	-8	-7	-5	-2	1	2	3	1	-1	-4	-5	-7	-4	4	8	10	11	11	9	9	7	5	5	5	8	10	13	15	14	10	8	6	6	5	3	-6	-15	-23	-30	-34	-38	-37	-35	-32	-26	-18	-10	6	12	14	14	12	10	6	-51
4294965247
4294934527
